time (s)	magX	magY	magZ
4715.591386	-64.037399	350.991241	387.801880
4715.594715	-64.037399	353.153717	405.803040
4715.598047	-62.810047	353.855042	424.447083
4715.601378	-62.517834	354.907074	443.324982
4715.604712	-61.582706	353.562836	462.085907
4715.608046	-60.413799	351.751038	483.067780
4715.611380	-58.835766	349.588562	504.283447
4715.614716	-56.965511	346.198700	524.096436
4715.618081	-54.803043	341.815308	544.961426
4715.621425	-52.406780	337.431915	565.358887
4715.624715	-49.250729	330.944489	586.632935
4715.628056	-45.627117	322.995911	608.608398
4715.631380	-42.587963	314.521362	629.181152
4715.634710	-38.379894	304.644073	651.039734
4715.638043	-33.938046	293.071899	671.963196
4715.641382	-29.613094	280.447693	692.068359
4715.644713	-24.937466	266.829926	712.465820
4715.648046	-20.203392	251.984802	731.577393
4715.651382	-13.657505	236.438339	749.987732
4715.656072	-3.137348	201.078903	784.236694
4715.658945	3.350090	182.493286	800.133850
4715.662336	10.012859	162.271194	815.329651
4715.665680	16.149622	141.815323	828.362976
4715.668888	22.520164	120.658089	840.870239
4715.672247	29.299824	98.331970	851.857971
4715.675558	35.495033	76.239624	859.748108
4715.678908	43.092930	53.504387	867.579773
4715.681802	49.346581	31.119812	871.963135
4715.685161	55.249561	8.735243	876.989502
4715.688502	61.444771	-15.402689	877.983032
4715.691817	67.347748	-37.319695	878.742798
4715.695144	73.426071	-59.295147	877.047974
4715.698455	78.627701	-80.569267	873.073608
4715.701373	84.004677	-102.252487	866.177124
4715.704708	89.440094	-122.416138	860.274170
4715.708075	93.998825	-142.871994	850.981262
4715.711372	98.557571	-162.042084	840.110413
4715.714705	104.051437	-179.867905	826.784912
4715.718042	107.382812	-197.167725	814.745178
4715.721371	111.298660	-213.181763	799.315613
4715.724703	115.097610	-228.260666	783.652222
4715.728034	118.136765	-241.703094	766.235535
4715.731365	121.526596	-254.677948	747.708374
4715.734699	123.104614	-266.133240	728.187561
4715.738033	125.676208	-276.770294	707.381104
4715.741365	127.721802	-287.232025	686.808289
4715.744699	129.299820	-295.297485	666.586182
4715.748035	131.462296	-302.252472	645.604309
4715.751397	132.455872	-309.265900	622.635315
4715.754699	133.566330	-314.584473	600.718262
4715.758039	133.800110	-318.324951	577.749268
4715.761370	133.624786	-322.123901	555.656921
4715.764704	134.033905	-325.279938	533.739929
4715.768030	134.033905	-327.676208	511.998230
4715.771365	133.683228	-328.202209	490.490356
4715.774694	133.215668	-328.377533	468.398010
4715.778036	132.338989	-327.734650	447.357666
4715.781366	131.403854	-326.799530	427.427856
4715.784698	129.884277	-324.870850	407.322632
4715.788033	128.130920	-322.416138	388.503235
4715.791370	127.195786	-319.669189	369.625366
4715.794711	124.916428	-317.798950	351.448853
4715.798034	123.805954	-314.350677	335.201050
4715.801362	121.526596	-310.376404	318.135010
4715.804691	119.539444	-306.109863	302.296295
4715.808024	117.260086	-301.492676	286.808289
4715.811356	114.922272	-297.459961	272.138489
4715.815620	109.720627	-287.582703	245.136765
4715.818901	107.733490	-283.257721	233.038574
4715.822210	105.863235	-277.880768	221.524841
4715.825544	102.824081	-272.854462	210.537109
4715.828889	100.486267	-267.886597	199.724731
4715.832235	98.732903	-262.392761	189.087662
4715.835628	96.044418	-257.132660	179.444183
4715.838491	93.589714	-251.989471	170.677383
4715.841860	91.310349	-246.554047	161.618347
4715.845117	88.680298	-241.410858	153.377563
4715.848458	87.102280	-236.501465	145.312103
4715.851779	84.822906	-232.351837	137.305084
4715.855109	82.660431	-226.331955	130.408524
4715.858453	80.322617	-221.773224	123.745766
4715.861354	78.569260	-216.980713	117.082993
4715.864688	76.699005	-211.895950	111.355347
4715.868026	75.413208	-207.395660	105.744591
4715.871357	73.309174	-202.895386	100.484520
4715.874684	70.737579	-198.453537	95.341324
4715.878023	69.860901	-193.836349	90.431915
4715.881356	68.282875	-189.686722	85.756279
4715.884689	66.295731	-185.478668	81.139099
4715.888021	64.600815	-181.095261	78.099937
4715.891361	63.315022	-177.530106	73.541206
4715.894683	61.737000	-172.854477	70.092926
4715.898017	61.094101	-169.873749	66.001755
4715.901353	59.574516	-165.841019	62.495033
4715.904682	58.814728	-161.925186	59.748096
4715.908017	57.002922	-157.950897	56.708942
4715.911380	55.892464	-154.911743	53.436001
4715.914683	54.723553	-151.171249	50.689068
4715.918014	53.496201	-147.898300	48.585037
4715.921353	52.677967	-144.917587	46.071888
4715.924698	51.567505	-141.703094	42.389832
4715.928016	50.983051	-138.605484	40.753361
4715.931350	49.755699	-135.800110	39.818233
4715.934679	48.879021	-133.053192	36.720631
4715.938018	48.119228	-129.955582	34.908825
4715.941352	47.067211	-127.617775	33.389248
4715.944685	45.313850	-124.520164	31.928112
4715.948016	45.255405	-121.597893	30.233196
4715.951349	44.320282	-119.084747	28.655170
4715.954732	43.385155	-117.214500	27.194038
4715.958022	41.982468	-114.993568	25.674459
4715.961345	40.988895	-112.597321	24.447107
4715.964684	40.112217	-110.668617	23.687317
4715.968022	39.469318	-108.623039	22.226183
4715.971341	38.534191	-106.752785	21.174168
4715.975999	36.956165	-103.070717	18.661016
4715.978887	35.787258	-101.375809	18.602571
4715.982221	35.436588	-99.564003	17.901226
4715.985661	34.559906	-97.927528	17.082993
4715.988928	33.858562	-96.115723	16.498539
4715.992278	32.806545	-94.596146	16.030975
4715.995531	32.631210	-93.310349	15.972530
4715.998440	32.105202	-91.907661	14.862068
4716.001766	31.228521	-90.212746	14.160725
4716.005104	31.286968	-88.810059	13.459381
4716.008429	30.644070	-87.699593	13.284044
4716.011797	30.410286	-86.121567	12.582701
4716.015120	29.884279	-85.244888	12.874928
4716.018463	29.358271	-83.608421	11.472239
4716.021338	28.949154	-82.497955	11.647573
4716.024734	28.247810	-81.796616	11.413794
4716.028004	27.721802	-80.686157	11.472239
4716.031338	27.838692	-79.108124	10.478668
4716.034671	27.721802	-78.056114	9.835770
4716.038008	27.195793	-77.471657	9.835770
4716.041342	26.260666	-76.302750	9.309759
4716.044670	26.202221	-74.724724	8.842197
4716.048006	26.202221	-74.257164	8.257744
4716.051339	26.143776	-72.854477	7.731736
4716.054707	25.793104	-72.620689	6.971946
4716.057998	24.916424	-71.627121	7.147282
4716.061340	25.267097	-70.925781	7.907073
4716.064665	25.150206	-69.990646	6.913501
4716.068006	24.507307	-69.639977	6.504383
4716.071332	24.331970	-68.763298	6.913501
4716.074664	24.039745	-68.178848	6.796610
4716.078003	23.630625	-67.068382	6.212157
4716.081333	23.689072	-66.776154	5.803039
4716.084672	23.630625	-65.431908	4.926359
4716.087998	22.987726	-64.905907	5.569258
4716.091389	22.403273	-64.672127	5.744594
4716.094686	22.870836	-63.795441	5.335476
4716.098032	22.403273	-63.736996	5.452367
4716.101330	22.169493	-63.210987	5.160140
4716.104668	21.818821	-62.860313	4.751023
4716.107998	21.877266	-62.392750	5.452367
4716.111331	21.468147	-62.100529	6.095266
4716.114662	21.292812	-61.808300	5.744594
4716.118000	21.585039	-60.814724	4.867914
4716.121327	21.292812	-60.522503	5.627703
4716.124666	21.000586	-60.522503	5.335476
4716.127999	20.591469	-60.288719	4.809468
4716.132709	20.942141	-59.528927	4.926359
4716.135574	20.883694	-59.412037	4.283460
4716.138935	20.416132	-58.827583	3.815897
4716.142382	20.708359	-58.710693	4.575687
4716.145526	20.240795	-58.886032	5.101695
4716.148874	20.299242	-57.834015	5.160140
4716.152182	19.773233	-58.301579	5.160140
4716.155523	20.123905	-57.541786	4.867914
4716.158420	19.656343	-57.775566	4.400351
4716.161756	19.597897	-57.191113	4.926359
4716.165098	19.714788	-57.541786	5.627703
4716.168442	20.065460	-57.015781	4.634132
4716.171838	19.481007	-56.606659	5.101695
4716.175083	19.597897	-57.074223	5.803039
4716.177992	19.481007	-55.905315	4.517241
4716.181331	19.597897	-56.197544	4.458796
4716.184690	19.247223	-56.372879	3.991233
4716.187988	19.422562	-56.665108	4.049678
4716.191329	19.130333	-56.665108	4.458796
4716.194659	19.656343	-56.372879	3.699007
4716.197990	20.299242	-56.372879	3.757452
4716.201316	19.890123	-56.372879	4.108124
4716.204657	19.890123	-55.729980	4.458796
4716.207985	19.188778	-56.489769	3.874342
4716.211318	19.305670	-56.197544	4.166569
4716.214655	19.656343	-56.314434	3.640561
4716.217988	19.714788	-56.606659	3.523671
4716.221323	20.065460	-56.606659	4.634132
4716.224652	19.305670	-57.074223	4.926359
4716.228006	19.831678	-57.074223	4.517241
4716.231323	19.481007	-57.074223	3.991233
4716.234654	19.364117	-57.600235	4.634132
4716.237989	19.597897	-57.424896	4.575687
4716.241319	19.714788	-57.717125	4.634132
4716.244651	19.948570	-58.126240	5.043250
4716.247986	19.422562	-58.126240	4.926359
4716.251318	19.714788	-58.535358	5.160140
4716.254646	19.714788	-59.002922	5.160140
4716.257987	19.890123	-59.470486	5.043250
4716.261313	19.364117	-58.886032	5.218585
4716.264647	20.065460	-59.645817	4.692577
4716.267980	20.065460	-59.704266	4.692577
4716.271328	19.948570	-60.054939	5.277031
4716.274647	20.591469	-60.639393	5.160140
4716.277982	20.474577	-60.814724	5.101695
4716.281313	20.357687	-61.457626	5.627703
4716.284644	20.708359	-62.275860	6.036820
4716.287978	20.942141	-62.568092	5.861485
4716.292221	20.708359	-63.736996	6.504383
4716.295525	20.942141	-63.620106	6.036820
4716.298831	21.175920	-64.204559	6.036820
4716.302160	22.169493	-64.789017	6.212157
4716.305518	21.935711	-65.315018	6.971946
4716.308853	21.818821	-66.133255	6.095266
4716.312239	21.760374	-66.951492	6.855055
4716.315116	22.169493	-67.711281	7.556400
4716.318410	22.578609	-68.646408	7.030391
4716.321739	22.637054	-69.113968	7.614846
4716.325069	22.695499	-69.873756	7.322618
4716.328399	23.279953	-70.399765	7.907073
4716.331729	23.396845	-71.159561	8.082409
4716.334647	24.039745	-72.094688	8.374634
4716.337973	24.273525	-72.912918	9.017534
4716.341304	24.682644	-73.380486	9.309759
4716.344640	24.448860	-74.666283	8.725307
4716.347968	24.624199	-75.835190	8.666861
4716.351309	24.974869	-76.419640	8.959087
4716.354645	25.909996	-77.062538	9.660433
4716.357976	25.968441	-78.348335	10.186441
4716.361308	25.559322	-79.634140	10.303331
4716.364633	27.078901	-80.744598	10.303331
4716.367967	27.137348	-81.562828	11.413794
4716.371305	27.721802	-83.316193	11.355347
4716.374639	27.604910	-84.485100	11.180012
4716.377972	28.189363	-85.478668	12.173582
4716.381305	28.540035	-87.115143	12.582701
4716.384635	28.656925	-88.167160	13.693161
4716.388005	28.949154	-89.511406	13.868498
4716.391298	29.182934	-90.972534	14.920513
4716.394633	29.650497	-92.375221	15.154295
4716.397971	30.176506	-93.544128	16.323202
4716.401311	30.001171	-95.239044	16.323202
4716.404636	30.936295	-97.459969	17.082993
4716.407965	31.345413	-98.687325	17.082993
4716.411296	31.579193	-100.616013	17.959673
4716.414631	31.520748	-102.486267	19.479250
4716.417984	32.338985	-104.707191	19.713032
4716.421301	33.040329	-106.109879	20.823496
4716.424637	33.274109	-108.272362	21.933956
4716.427968	34.092346	-110.376389	22.927526
4716.431356	34.326126	-112.538872	24.154879
4716.434634	35.319698	-114.876686	25.674459
4716.437964	36.547050	-117.272942	25.908241
4716.441301	36.605495	-119.435425	27.544710
4716.444632	37.599064	-122.007019	29.122734
4716.449254	40.229107	-126.974876	31.928112
4716.452168	41.281124	-130.306244	33.330803
4716.455562	41.865578	-133.228516	34.558151
4716.458883	42.800701	-135.683228	36.720631
4716.462255	43.326710	-138.313263	38.064873
4716.465568	44.320282	-141.819977	39.409115
4716.468806	45.430744	-143.631790	42.623611
4716.472147	46.833431	-147.664520	44.143192
4716.475072	47.885448	-150.645233	47.007011
4716.478380	48.703682	-153.918167	49.461720
4716.481723	50.223263	-157.308014	52.734657
4716.485050	50.573936	-160.931610	55.481590
4716.488407	51.801285	-164.146118	57.994740
4716.491747	52.677967	-168.003494	60.917004
4716.494625	53.496201	-171.685562	64.073059
4716.497982	55.483345	-175.542953	68.047340
4716.501291	56.184689	-180.160141	71.144943
4716.504633	57.762711	-184.309753	76.463470
4716.507958	58.580948	-188.985382	79.619514
4716.511287	59.866745	-193.661011	83.535355
4716.514624	61.210991	-198.102859	89.379890
4716.517958	61.970779	-202.427811	93.061951
4716.521292	63.899475	-206.694336	99.198715
4716.524619	64.425484	-211.837524	104.634132
4716.527961	66.529518	-216.688477	110.478668
4716.531292	67.347748	-221.597900	117.784332
4716.534619	68.224426	-226.857986	124.037987
4716.537956	70.094681	-232.351837	130.876099
4716.541317	71.205139	-237.728806	138.649323
4716.544621	72.140274	-243.105774	145.954987
4716.547956	74.010521	-247.781403	154.546463
4716.551289	75.296318	-253.041489	162.495026
4716.554617	76.406784	-258.710693	172.489197
4716.557953	77.634132	-263.620117	182.600235
4716.561286	79.212158	-269.289307	193.120392
4716.564665	80.556396	-274.432495	204.049683
4716.567956	82.134430	-278.991241	214.336060
4716.571285	83.478668	-284.894226	226.434265
4716.574622	85.758041	-290.037415	237.480423
4716.577949	86.342491	-295.765045	249.987732
4716.581286	87.920517	-300.265350	264.014618
4716.584655	89.790764	-305.525421	277.632385
4716.587950	90.901230	-310.376404	293.646423
4716.591281	91.953247	-314.818237	309.543549
4716.594614	93.823502	-318.909393	325.206909
4716.597951	94.758621	-322.474548	341.863831
4716.601275	96.395096	-326.156616	359.806549
4716.604612	97.797775	-329.254242	377.340149
4716.608885	99.551140	-334.689667	416.089417
4716.612226	100.720047	-337.027466	435.785522
4716.615550	101.129166	-337.319702	456.416718
4716.618791	101.538284	-339.599060	477.983063
4716.622155	101.421387	-339.832855	500.659821
4716.625456	101.655167	-338.839294	521.407959
4716.628856	101.246056	-337.904144	542.974243
4716.632158	100.369370	-335.215637	565.358887
4716.635098	98.732903	-332.936310	587.860352
4716.638398	97.680893	-329.371124	611.296936
4716.641731	96.044418	-324.111053	632.687866
4716.645040	93.472824	-318.617187	655.423157
4716.648372	90.842781	-312.188171	676.638794
4716.651701	88.212738	-303.947388	698.731140
4716.654607	85.348923	-294.829926	718.076538
4716.657946	81.199295	-285.712433	738.590881
4716.661273	77.225014	-274.666260	757.760986
4716.664612	73.192291	-261.749847	776.054382
4716.667944	67.990646	-249.184097	793.704895
4716.671310	63.081238	-235.098785	809.309814
4716.674605	57.587376	-220.019882	825.382263
4716.677939	52.210403	-202.895386	838.941589
4716.681269	47.184105	-185.478668	849.695496
4716.684602	40.521332	-166.893036	860.274170
4716.687939	33.858562	-147.430740	869.274719
4716.691272	27.020456	-127.734657	875.586792
4716.694610	20.649914	-106.635887	879.970215
4716.697971	14.337814	-84.660439	883.944458
4716.701274	8.902397	-62.918762	883.710693
4716.704607	1.772064	-40.125072	882.833984
4716.707936	-4.949154	-18.324955	881.606689
4716.711272	-11.085911	5.286967	876.931030
4716.714637	-17.281124	28.022209	870.268250
4716.717936	-23.593220	50.815899	863.780823
4716.721279	-28.561077	73.551132	853.202148
4716.724605	-34.522503	95.818825	843.967834
4716.727940	-40.367031	117.969597	829.473450
4716.731266	-45.159557	138.659256	815.563416
4716.734603	-50.361187	159.290482	800.542969
4716.737932	-54.510807	178.986557	784.236694
4716.741271	-59.420216	196.812408	768.164246
4716.744603	-63.394505	213.995331	749.812378
4716.747936	-67.602570	230.652252	731.577393
4716.751267	-71.401520	245.731155	712.758057
4716.754601	-74.031570	260.459381	692.302185
4716.757955	-77.888947	273.492706	672.430725
4716.761261	-80.752777	285.824677	651.974854
4716.765938	-85.837509	305.345428	609.660400
4716.768818	-88.233780	313.703094	588.269470
4716.772118	-90.104034	321.184113	568.807129
4716.775506	-92.208069	327.846863	548.059021
4716.778813	-93.610748	332.990051	526.142029
4716.782198	-94.195206	336.789032	507.381073
4716.785519	-94.896561	340.295746	487.860321
4716.788424	-96.299240	342.282867	466.936890
4716.791687	-96.474579	343.568665	447.883667
4716.795016	-97.292816	344.562256	429.298096
4716.798364	-97.468155	344.270020	410.946259
4716.801704	-97.234375	343.101105	393.821747
4716.805016	-96.825256	342.165985	376.288116
4716.808348	-96.883698	339.126831	359.923431
4716.811261	-96.007019	337.315033	343.149628
4716.814594	-95.364120	334.042084	327.194061
4716.817925	-94.545883	330.301575	312.290466
4716.821260	-92.967850	326.268860	298.322021
4716.824597	-92.032730	322.119232	283.710693
4716.827929	-90.688492	318.144958	271.086517
4716.831279	-89.344254	313.352417	258.170074
4716.834636	-87.473984	307.858582	245.019867
4716.837927	-86.012863	302.832245	233.564575
4716.841262	-84.727051	297.922852	222.518402
4716.844596	-83.207489	291.844543	210.946228
4716.847925	-81.220337	286.526031	201.127411
4716.851259	-78.765640	280.973694	191.191696
4716.854592	-76.661591	274.486267	181.372879
4716.857925	-74.849792	269.167755	171.378723
4716.861279	-73.271774	263.206329	163.663940
4716.864594	-71.109299	257.595581	155.540039
4716.867921	-69.122147	251.926361	147.474579
4716.871256	-67.310349	245.906479	139.876678
4716.874596	-66.141434	240.295731	132.804794
4716.877922	-64.797195	234.918777	126.317360
4716.881256	-62.050266	229.834015	119.187027
4716.884589	-60.822910	224.690826	112.758034
4716.887922	-59.478664	219.313843	106.562836
4716.891252	-58.075977	214.053787	101.945641
4716.894587	-56.264172	209.144363	96.334892
4716.897914	-55.270603	204.410309	91.191696
4716.901255	-53.634136	199.267090	86.399185
4716.904615	-52.406780	194.065460	82.308006
4716.907916	-50.887203	189.389832	78.918175
4716.911251	-50.244297	185.473999	75.236122
4716.914583	-48.958500	181.090591	70.852715
4716.917933	-47.497372	176.590302	67.170662
4716.922538	-45.685558	168.407959	61.033897
4716.925951	-44.867329	164.667450	57.527176
4716.928790	-43.523090	160.400940	53.903564
4716.932170	-42.412624	156.894226	51.448860
4716.935525	-41.068378	153.270599	48.643482
4716.938831	-40.133251	149.354767	47.065456
4716.942109	-39.665691	145.906494	44.669197
4716.945428	-38.613674	142.808884	42.798946
4716.948371	-37.444767	139.243729	40.461136
4716.951671	-36.743420	136.613678	38.298653
4716.955002	-36.451199	133.399185	36.194622
4716.958350	-35.866749	130.652267	33.915253
4716.961691	-34.990063	127.613091	32.687901
4716.965017	-33.704266	124.632378	30.817648
4716.967948	-33.470486	122.002327	29.239624
4716.971251	-32.827579	119.489182	27.603155
4716.974584	-31.600231	116.800697	27.077147
4716.977908	-31.132671	114.345993	25.265343
4716.981250	-30.431324	111.365273	23.278198
4716.984576	-28.911747	109.085907	22.167738
4716.987908	-28.736408	106.806541	22.459965
4716.991269	-28.268848	104.644066	21.174168
4716.994577	-27.742840	102.656914	19.596142
4716.997913	-26.457043	100.611336	18.485680
4717.001244	-25.872593	98.331970	17.959673
4717.004573	-25.697254	96.578606	16.966101
4717.007910	-25.288136	94.649918	16.147867
4717.011240	-24.411457	93.130333	15.680304
4717.014578	-24.294563	91.844536	14.160725
4717.017902	-24.236122	89.857391	13.926943
4717.021245	-22.774986	87.928696	13.634716
4717.024576	-22.307423	86.467560	12.758036
4717.027904	-22.132084	85.298653	12.348919
4717.031271	-21.781410	83.369957	11.939802
4717.034584	-21.021626	82.084160	11.355347
4717.037904	-20.320282	80.915253	11.355347
4717.041238	-20.378723	79.512566	10.069550
4717.044574	-20.320282	77.992989	9.835770
4717.047902	-19.326706	76.648743	10.011105
4717.051234	-19.268265	76.005844	8.842197
4717.054568	-19.151375	74.252480	8.900642
4717.057902	-18.625362	73.492691	9.368206
4717.061237	-17.982468	73.025131	7.848627
4717.064565	-17.748688	71.563995	8.666861
4717.067906	-17.631794	70.628868	7.673291
4717.071265	-17.398014	69.109291	7.439509
