time (s)	magX	magY	magZ
5544.755144	-110.092346	218.203384	149.227936
5544.758455	-111.670380	222.995911	155.832260
5544.761790	-113.599060	226.444183	162.378128
5544.765127	-115.177094	230.593811	169.216248
5544.768457	-117.281128	234.392746	176.638809
5544.771787	-119.151382	238.367050	183.301590
5544.775126	-120.554062	242.984238	190.899475
5544.778457	-121.898300	246.549377	199.081818
5544.781830	-123.651672	250.699005	207.147293
5544.785120	-125.229691	254.556396	215.797195
5544.788457	-126.866165	258.413818	224.914673
5544.791791	-128.385742	262.329651	234.032135
5544.795127	-130.139099	265.777924	243.149612
5544.798481	-131.366455	270.336639	253.669785
5544.801783	-132.652252	273.901794	263.430176
5544.805122	-134.230286	277.233215	274.885437
5544.808452	-134.990067	280.856812	285.464050
5544.811792	-136.217422	283.662201	297.912903
5544.815113	-137.210983	287.227356	310.127991
5544.818455	-137.912338	290.091156	324.213318
5544.821782	-138.905914	292.428986	337.655762
5544.825115	-139.081238	295.175934	351.799530
5544.828454	-139.373474	297.221497	366.878448
5544.831783	-139.256577	299.091766	381.898895
5544.835117	-140.074814	299.793121	397.796021
5544.838448	-139.198135	301.078918	414.043823
5544.841802	-138.789017	300.319122	429.940979
5544.845167	-137.386322	300.494446	446.773224
5544.848454	-136.568100	298.857971	464.073059
5544.851782	-135.340744	297.864410	482.834045
5544.855119	-133.061371	295.409729	500.016968
5544.858445	-130.548218	292.312103	518.251953
5544.861781	-127.742844	288.571594	535.084167
5544.866426	-120.904739	279.044983	572.255371
5544.869334	-117.339569	273.317383	589.379883
5544.872658	-112.371719	266.946838	607.848633
5544.876092	-107.111633	259.582703	625.440674
5544.879381	-101.909988	251.225037	642.623596
5544.882707	-96.649902	242.984238	658.696106
5544.885985	-90.162476	234.100525	675.060791
5544.888868	-84.376389	224.573929	691.951477
5544.892218	-76.544708	214.404449	707.848633
5544.895543	-69.239044	203.007614	721.349487
5544.898870	-61.991817	191.786102	733.973694
5544.902199	-53.692577	179.804794	748.175903
5544.905558	-45.276447	166.362366	759.923462
5544.908441	-36.451199	153.036819	772.021606
5544.911774	-28.151958	139.652832	782.892456
5544.915107	-18.450031	125.684395	792.185303
5544.918442	-9.800114	110.371712	802.413208
5544.921783	-0.215076	96.111038	809.835754
5544.925106	9.837524	80.681473	816.732361
5544.928475	19.890123	65.251900	821.992432
5544.931768	29.650497	48.887199	826.843384
5544.935110	40.287552	33.457626	831.986572
5544.938447	50.983051	17.034483	832.220276
5544.941774	61.035652	1.546464	832.921753
5544.945105	71.029808	-16.104033	833.564575
5544.948436	80.907074	-32.176506	832.044983
5544.951773	90.784340	-48.482758	828.596741
5544.955105	100.836937	-64.496788	823.979492
5544.958440	111.006424	-79.984810	818.485657
5544.961772	119.539444	-95.297485	812.524231
5544.965099	128.715363	-110.259506	803.465210
5544.968438	137.949738	-125.163063	794.347717
5544.971791	146.073639	-139.131500	783.418518
5544.975100	153.496201	-152.632385	771.144958
5544.978438	162.146118	-165.548798	757.293396
5544.981766	169.276443	-177.646988	743.032715
5544.985133	176.056091	-189.745178	727.720032
5544.988433	182.426636	-200.031555	712.991821
5544.991773	187.920517	-209.558136	695.867310
5544.995103	192.713028	-218.734070	677.047974
5544.998432	197.447113	-227.150192	659.981873
5545.001770	201.304489	-235.157211	640.753357
5545.005099	204.694336	-240.592636	622.167786
5545.008433	207.616592	-246.378723	604.224976
5545.011772	210.714203	-251.521912	585.054932
5545.015096	212.116882	-256.197540	566.469299
5545.019782	214.922256	-263.152527	528.479858
5545.022665	215.740509	-265.665680	511.705994
5545.026040	215.623611	-266.834595	493.061951
5545.029379	216.266510	-268.237305	474.359436
5545.032713	215.389816	-269.464630	457.001190
5545.035961	215.039154	-269.932190	439.818207
5545.039269	213.636475	-269.990662	424.213348
5545.042610	213.344238	-268.821716	407.907074
5545.045526	212.233780	-268.354156	392.243713
5545.048848	210.305084	-267.009949	376.697266
5545.052220	208.727066	-264.847473	362.553467
5545.055555	206.973694	-264.204559	347.065460
5545.058881	205.220337	-262.217407	333.973694
5545.062304	203.057861	-259.996490	320.531281
5545.065116	200.544708	-257.191132	307.731720
5545.068424	197.856216	-255.203979	294.230865
5545.071760	195.226181	-251.872574	281.723541
5545.075091	192.654587	-249.184097	270.443604
5545.078433	189.790756	-245.677383	259.163635
5545.081756	187.511398	-243.164215	248.234375
5545.085092	184.121567	-240.475739	236.369965
5545.088420	181.140854	-236.209244	227.018692
5545.091758	178.627701	-233.170074	215.504959
5545.095092	175.471649	-229.604904	206.270599
5545.098425	172.257156	-225.630630	196.744003
5545.101758	169.685562	-222.299225	187.334305
5545.105092	165.945053	-217.974274	178.859726
5545.108440	163.198135	-214.233765	169.625366
5545.111760	159.457626	-210.727066	162.085922
5545.115087	156.009354	-206.869659	154.546463
5545.118421	152.327286	-203.538269	146.773239
5545.121753	149.463470	-199.622437	139.642899
5545.125085	146.833435	-195.531265	132.863235
5545.128426	143.677383	-192.725891	126.083580
5545.131759	141.047333	-188.459366	119.187027
5545.135089	137.248398	-185.069550	113.634720
5545.138420	134.735245	-181.679718	107.147278
5545.141752	132.105209	-177.530106	102.939217
5545.145086	129.708939	-174.490936	98.205139
5545.148414	126.728226	-170.808868	93.704849
5545.151760	124.039749	-168.529510	89.438339
5545.155083	121.234360	-164.613678	85.171829
5545.158417	119.656342	-161.749847	81.080658
5545.161753	117.260086	-158.184677	78.216827
5545.165082	114.922272	-155.437759	74.359436
5545.168414	112.876678	-152.866165	71.028053
5545.171752	110.655762	-150.294556	67.813560
5545.175087	108.376389	-147.606079	65.358856
5545.179395	104.635880	-142.521317	59.923439
5545.182679	102.882523	-140.008179	57.293396
5545.185936	101.538284	-137.319702	55.072472
5545.189308	99.609589	-135.332550	52.559319
5545.192597	97.505554	-132.760956	50.221504
5545.195952	95.810638	-131.066040	48.468147
5545.199301	94.524841	-129.312683	46.948566
5545.202196	92.713028	-126.682648	44.786091
5545.205553	91.193451	-124.111053	43.324955
5545.208896	90.082993	-122.123909	41.630043
5545.212163	88.329636	-120.662766	40.402691
5545.215500	87.219170	-118.266518	38.181763
5545.218834	85.933372	-116.396271	37.305084
5545.222174	84.822906	-114.526009	35.317944
5545.225078	83.069550	-112.772652	33.623028
5545.228406	81.433083	-111.136185	32.454121
5545.231777	80.030396	-109.382820	31.928112
5545.235068	79.153709	-107.220345	30.057859
5545.238411	77.867912	-105.876099	28.304499
5545.241744	76.932785	-103.947403	27.544710
5545.245078	75.880768	-102.544716	26.258913
5545.248404	74.536530	-100.674461	25.440678
5545.251743	72.958504	-99.330215	24.739334
5545.255072	72.023376	-97.576859	23.570425
5545.258411	70.971359	-95.823502	22.284628
5545.261740	70.036240	-94.654594	21.291058
5545.265074	69.218002	-93.310349	20.765049
5545.268410	67.932205	-92.316780	20.355932
5545.271743	67.406197	-90.797203	18.953243
5545.275085	66.061951	-89.219170	18.485680
5545.278406	65.009933	-88.400940	17.784336
5545.281740	63.899475	-87.056694	17.082993
5545.285072	63.081238	-85.887787	16.556984
5545.288408	62.263004	-85.127998	16.498539
5545.291737	61.620106	-83.783752	14.978958
5545.295074	61.210991	-82.907074	14.978958
5545.298405	59.866745	-81.738167	14.628286
5545.301735	59.749855	-81.036827	14.394506
5545.305070	58.522503	-79.751030	14.336060
5545.308406	58.230278	-79.984810	13.634716
5545.311735	58.054939	-78.640564	12.991817
5545.315070	57.412041	-77.997665	12.933372
5545.318416	56.710697	-77.296318	12.874928
5545.321733	56.067799	-76.828758	11.589128
5545.325081	55.483345	-75.426071	11.589128
5545.328404	55.483345	-75.367622	11.939802
5545.331733	54.898888	-74.724724	11.589128
5545.335062	53.963764	-74.198723	11.706020
5545.339705	53.905319	-72.912918	11.881355
5545.342614	53.788429	-72.620689	11.063122
5545.345940	53.437756	-71.510231	11.530684
5545.349272	52.619522	-71.568672	10.887785
5545.352685	52.210403	-71.510231	10.829340
5545.355988	52.444183	-70.750443	10.712448
5545.359250	52.268848	-70.750443	11.530684
5545.362182	51.976624	-69.815315	10.127996
5545.365489	51.918175	-69.464645	9.718878
5545.368822	51.216835	-69.113968	10.069550
5545.372163	50.983051	-68.938629	9.660433
5545.375494	50.983051	-68.529518	10.011105
5545.378834	51.041496	-68.061951	9.952660
5545.381726	50.164818	-67.945061	10.127996
5545.385064	49.521919	-67.360611	9.485096
5545.388395	49.463470	-66.951492	8.959087
5545.391746	48.879021	-66.016365	8.959087
5545.395062	49.054356	-66.016365	8.140854
5545.398397	48.879021	-66.133255	9.017534
5545.401726	48.119228	-65.081238	8.608416
5545.405069	47.651665	-64.964348	8.082409
5545.408389	48.060783	-64.555237	8.023962
5545.411728	48.002338	-64.204559	7.907073
5545.415059	47.885448	-64.496788	8.433081
5545.418389	47.300995	-64.029221	8.140854
5545.421724	47.534775	-63.970779	8.140854
5545.425055	46.950321	-63.269436	7.614846
5545.428386	46.424313	-63.152546	8.023962
5545.431719	46.248978	-63.210987	7.088837
5545.435076	46.424313	-62.977203	7.614846
5545.438384	46.541206	-63.269436	7.322618
5545.441724	46.774986	-62.684982	6.855055
5545.445057	46.891876	-63.678551	7.030391
5545.448386	47.067211	-63.620106	8.023962
5545.451720	46.658096	-63.620106	8.316189
5545.455055	46.190533	-62.743423	7.673291
5545.458395	47.067211	-63.620106	7.848627
5545.461724	46.950321	-63.561657	8.374634
5545.465090	47.067211	-63.444767	8.491526
5545.468385	46.774986	-64.029221	8.316189
5545.471717	47.476330	-64.496788	7.731736
5545.475053	47.534775	-63.970779	8.549971
5545.478402	47.476330	-64.613678	8.433081
5545.481722	47.593220	-64.847458	9.368206
5545.485054	47.827003	-64.847458	9.543541
5545.488383	48.002338	-65.139687	8.316189
5545.491719	48.294563	-65.490356	10.069550
5545.496402	48.703682	-66.951492	9.485096
5545.499349	48.879021	-66.776154	9.309759
5545.502664	49.346581	-66.659264	9.075979
5545.505974	49.755699	-66.951492	9.134424
5545.509272	49.755699	-67.068382	8.959087
5545.512566	50.164818	-67.594391	8.549971
5545.515897	49.931038	-67.594391	9.251314
5545.519256	50.106373	-68.471069	9.543541
5545.522180	50.807716	-68.061951	9.894215
5545.525494	50.573936	-68.704849	9.251314
5545.528835	51.450615	-68.938629	9.777323
5545.532235	50.983051	-69.113968	10.420221
5545.535478	50.515488	-69.406197	10.420221
5545.538808	51.041496	-69.581535	10.361776
5545.541713	51.450615	-70.049095	10.186441
5545.545043	52.035069	-70.633553	11.121567
5545.548383	52.093513	-70.575111	10.712448
5545.551734	52.327293	-71.627121	11.180012
5545.555043	53.145531	-72.094688	10.478668
5545.558376	53.496201	-72.679138	11.004675
5545.561706	54.431328	-73.497375	11.706020
5545.565049	54.022209	-74.081825	11.706020
5545.568376	54.431328	-74.374054	11.939802
5545.571710	54.723553	-75.250732	11.881355
5545.575040	55.483345	-76.127411	12.816483
5545.578380	55.366451	-76.594978	13.050262
5545.581708	56.944477	-77.880775	13.400934
5545.585037	56.710697	-78.640564	13.400934
5545.588374	58.113384	-79.341911	14.160725
5545.591710	58.990067	-80.218590	14.160725
5545.595073	59.691406	-81.036827	15.095850
5545.598375	59.983635	-81.913506	15.855640
5545.601705	60.977207	-83.023964	16.732321
5545.605045	61.620106	-84.075981	17.082993
5545.608388	62.146114	-85.069550	16.849211
5545.611706	63.548801	-86.121567	17.725891
5545.615035	64.250145	-87.115143	18.544125
5545.618374	65.068382	-89.043839	20.180595
5545.621699	65.769730	-89.803627	19.829924
5545.625038	66.587959	-91.206314	21.407948
5545.628370	67.756866	-91.966110	21.641729
5545.631695	68.341324	-93.953247	22.693747
5545.635037	69.802452	-95.180595	24.096434
5545.638374	70.445351	-96.291061	24.154879
5545.641702	71.029808	-97.752197	24.973116
5545.645032	72.783173	-99.154884	25.966686
5545.648366	73.776741	-100.616013	26.668030
5545.652653	75.646988	-103.129166	29.005844
5545.655982	76.699005	-104.356514	30.350086
5545.659212	77.984802	-106.343658	30.525421
5545.662550	79.095261	-107.337234	31.051430
5545.665886	79.562828	-109.032150	33.038574
5545.669232	80.848633	-110.376389	33.623028
5545.672591	82.075981	-112.363541	34.499706
5545.675488	83.537109	-113.824661	35.376389
5545.678814	84.939804	-115.753365	36.603741
5545.682181	86.751602	-117.448280	38.298653
5545.685468	87.920517	-118.850967	40.344246
5545.688784	89.381653	-121.247231	41.396259
5545.692119	90.609001	-123.292809	42.331387
5545.695480	92.245468	-126.156639	44.376972
5545.698363	93.297485	-128.377563	46.364113
5545.701692	95.226181	-130.481598	47.883694
5545.705033	96.687317	-132.468735	50.805958
5545.708361	98.440681	-134.748108	52.442429
5545.711699	100.252487	-137.144348	54.137344
5545.715024	101.947403	-139.832840	57.293396
5545.718365	104.109879	-142.053757	60.098770
5545.721694	105.980133	-145.911163	63.371716
5545.725043	108.317947	-147.898300	65.300407
5545.728357	110.597305	-150.820572	69.683807
5545.731697	112.350662	-153.625946	73.365868
5545.735035	115.448273	-156.723541	77.164810
5545.738360	117.786087	-160.054932	81.314438
5545.741689	120.942139	-162.977203	84.645821
5545.745027	122.870834	-166.367035	89.496780
5545.748359	125.091751	-169.172409	94.289307
5545.751690	127.663361	-173.263580	99.958504
5545.755027	130.410294	-176.361191	104.400352
5545.758361	133.624786	-180.101700	109.426659
5545.761689	136.254822	-183.433075	114.862061
5545.765019	138.125076	-186.647568	120.355934
5545.768375	140.930450	-190.680298	126.083580
5545.771694	144.729401	-193.485672	131.811218
5545.775024	147.008774	-197.109283	138.824661
5545.778353	149.989471	-200.499115	146.364120
5545.781688	153.203979	-203.655167	153.143784
5545.785018	155.191116	-207.278793	160.391006
5545.788355	158.931610	-210.785492	166.936874
5545.791688	162.379898	-213.707764	175.353012
5545.795016	165.185272	-217.506714	183.535370
5545.798409	167.873749	-221.188766	191.600815
5545.801696	170.620697	-224.461716	200.484512
5545.805017	173.601395	-227.559311	209.368210
5545.808354	177.166565	-231.299820	219.011688
5545.813005	182.192856	-237.378128	237.947998
5545.815869	184.764450	-240.417297	248.585037
5545.819223	188.154297	-242.813553	258.696075
5545.822563	190.667435	-245.911163	269.800690
5545.825972	193.355927	-248.365875	282.015778
5545.829325	195.693741	-250.937454	293.529510
5545.832552	197.563995	-253.450623	307.673279
5545.835442	200.077133	-256.898895	320.940369
5545.838776	202.882523	-258.535370	335.084167
5545.842104	205.746338	-260.873169	349.870819
5545.845441	207.265930	-262.334320	366.118652
5545.848776	209.253067	-263.503204	381.022217
5545.852102	210.538864	-264.555237	398.555817
5545.855027	212.175339	-265.315033	415.154297
5545.858352	213.636475	-265.782593	432.395691
5545.861682	214.337814	-265.957916	450.279938
5545.865017	214.980713	-265.431915	468.631775
5545.868345	215.214493	-264.263000	487.626526
5545.871679	215.857391	-262.743408	506.387512
5545.875012	215.331390	-260.113373	526.317322
5545.878354	214.863831	-257.541809	544.669189
5545.881678	213.870255	-254.327286	564.248413
5545.885014	212.292221	-249.885452	583.944519
5545.888349	210.597305	-245.034470	603.465210
5545.891676	207.908813	-239.306839	622.109314
5545.895013	204.577438	-233.403870	640.870239
5545.898358	201.772064	-226.273529	659.923462
5545.901670	198.382233	-218.792526	677.866150
5545.905010	194.583282	-209.967270	694.990662
5545.908341	189.147858	-201.317352	710.186462
5545.911673	183.770889	-191.323196	726.434265
5545.915005	177.984802	-180.510803	740.578003
5545.918337	171.848038	-169.289307	755.072449
5545.921675	165.068375	-157.483337	766.936890
5545.925006	157.412048	-145.268265	778.099976
5545.928343	150.807724	-132.819412	789.730591
5545.931673	142.625366	-119.084747	799.315613
5545.935005	135.085907	-105.291641	806.971985
5545.938334	126.377563	-91.264763	813.576233
5545.941696	117.376968	-77.179428	820.414368
5545.945008	109.019287	-62.042080	825.265320
5545.948341	99.258911	-46.612507	829.122742
5545.951673	90.141434	-32.118061	831.343689
5545.955009	80.790184	-16.279367	831.694336
5545.958339	70.796021	0.026885	832.629395
5545.961669	61.035652	16.040913	831.285217
5545.965007	50.866161	32.288719	828.012329
5545.969696	29.708942	64.024544	819.888306
5545.973018	19.247223	79.512566	812.232056
5545.975959	9.662188	95.585037	804.926331
5545.979305	-0.565750	111.073059	796.802429
5545.982520	-10.092342	126.561073	787.684998
5545.985881	-20.086498	142.107544	777.573975
5545.989186	-29.613094	156.309753	764.832886
5545.992534	-39.256573	170.511978	750.922852
5545.995422	-48.432499	184.421982	737.714233
5545.998779	-56.731731	197.922867	723.161316
5546.002111	-65.498535	210.547058	707.907104
5546.005445	-73.213318	222.353012	692.652832
5546.008764	-80.986557	233.106964	675.353027
5546.012093	-87.824661	243.510239	658.170044
5546.014995	-94.721222	253.212158	640.402649
5546.018329	-100.390427	261.920502	623.161316
5546.021663	-106.351837	269.752197	605.803040
5546.025004	-110.793686	277.408539	586.925171
5546.028347	-116.346008	282.610168	569.157837
5546.031661	-120.261841	288.513153	550.864380
5546.034999	-124.119232	293.597900	532.570984
5546.038325	-127.392166	297.572205	515.095825
5546.041662	-130.255997	300.669769	497.328461
5546.044996	-132.126251	303.066040	480.613068
5546.048326	-134.230286	305.053192	462.261230
5546.051664	-135.457642	306.338989	446.364105
5546.054993	-137.678558	306.572754	429.473419
5546.058323	-138.379898	306.864990	413.693176
5546.061658	-138.964355	306.222107	399.490967
5546.065022	-139.841034	305.345428	383.886017
5546.068358	-139.724136	303.767395	370.385162
5546.071664	-140.191696	302.773834	355.481567
5546.074997	-139.782578	299.793121	342.740479
5546.078323	-139.139694	297.922852	328.947418
5546.081657	-138.029236	295.701935	317.375214
5546.084993	-138.204559	292.078308	304.400360
5546.088319	-136.801880	289.389832	293.120392
5546.091653	-136.158981	285.883118	282.424896
5546.094997	-134.873169	281.967285	271.495605
5546.098323	-133.762711	278.635895	261.267700
5546.101653	-132.652252	274.661591	250.922852
5546.104993	-131.541794	270.862671	240.811798
5546.108344	-129.788437	266.596130	231.928116
5546.111652	-128.385742	262.388062	222.167740
5546.114990	-126.515503	257.770905	212.933380
5546.118320	-124.645248	253.212158	203.465225
5546.121652	-122.950333	249.120987	195.808884
5546.124985	-120.787842	244.679123	187.509644
5546.128322	-118.800705	240.354187	178.041504
5546.132563	-116.053772	231.528931	163.313278
5546.135831	-113.891296	227.028641	156.416718
5546.139175	-111.495026	222.411453	149.578613
5546.142490	-109.858566	218.320282	142.623611
5546.145858	-107.403870	213.001770	136.428406
5546.149192	-105.650497	209.144363	130.408524
5546.152131	-104.130920	204.702515	123.278206
5546.155434	-101.909988	200.260681	119.245476
5546.158789	-98.987732	196.111053	113.167160
5546.162080	-97.409698	191.435425	106.738167
5546.165403	-94.955002	187.578033	102.120987
5546.168743	-93.786102	183.662186	97.270012
5546.172081	-91.506714	179.337234	93.471069
5546.174987	-89.227356	175.830521	90.081238
5546.178317	-88.058441	172.265350	84.938049
5546.181646	-85.486847	168.115723	80.671532
5546.184980	-84.317947	164.550552	77.164810
5546.188314	-83.032135	161.043839	74.242546
5546.191643	-80.811218	158.180023	70.618935
5546.194983	-78.765640	154.556412	68.047340
5546.198310	-77.304504	151.458801	65.475746
5546.201643	-75.375809	148.536545	62.845703
5546.204975	-73.973114	145.497375	60.215660
5546.208316	-72.804214	142.341324	58.111629
5546.211644	-71.459976	140.120392	56.592049
