time (s)	magX	magY	magZ
5639.924644	458.102844	528.937988	-161.466431
5639.927974	451.966125	526.717102	-174.441284
5639.931325	445.712463	525.080627	-186.714783
5639.934636	439.634125	521.924622	-198.228577
5639.937973	432.679138	519.060791	-209.917603
5639.941302	425.841034	515.729370	-222.717163
5639.944638	418.009338	512.398010	-234.815308
5639.947969	411.405029	508.306854	-247.322632
5639.951306	403.631805	504.098755	-258.777893
5639.954640	395.975464	499.598480	-270.408569
5639.957977	387.910004	493.987732	-282.156067
5639.961306	379.552307	488.902985	-293.085327
5639.965933	362.018707	477.097015	-315.060791
5639.968848	352.959686	471.486267	-327.100525
5639.972163	342.790192	464.414368	-336.977844
5639.975593	333.614258	456.933380	-347.264160
5639.978922	324.029236	450.095276	-356.673889
5639.982158	314.151978	441.211578	-367.135559
5639.985477	304.391602	432.853882	-377.480469
5639.988424	293.637634	424.087097	-386.539429
5639.991722	283.117493	415.378723	-394.897156
5639.995055	272.246643	405.326111	-403.430115
5639.998396	261.317352	395.156647	-412.781372
5640.001754	250.154297	385.220917	-420.613037
5640.005077	239.225021	374.057861	-427.451172
5640.008408	226.893036	362.544128	-434.932190
5640.011306	215.613098	351.790192	-442.179443
5640.014627	204.216263	338.698425	-448.433105
5640.018007	193.228516	326.424896	-454.394470
5640.021301	181.422562	314.735840	-459.362366
5640.024633	169.207474	301.059631	-464.973145
5640.027968	157.459961	288.201630	-468.655151
5640.031327	145.361786	274.876099	-471.577393
5640.034628	134.140274	260.849213	-474.967224
5640.037968	122.042084	246.062531	-476.895935
5640.041300	110.879013	232.327881	-478.532471
5640.044640	99.131516	218.067200	-480.227356
5640.047964	87.734650	203.864990	-479.642944
5640.051293	76.571625	189.370544	-479.233826
5640.054629	65.934540	174.583862	-477.947937
5640.057959	55.648163	160.264755	-476.545288
5640.061295	44.134430	146.179413	-473.973694
5640.064630	34.023376	131.918762	-470.057861
5640.067955	23.970764	118.008759	-466.901855
5640.071299	14.794861	104.157211	-462.284607
5640.074650	5.677399	90.305664	-456.615417
5640.077954	-3.615417	76.804787	-450.537170
5640.081296	-13.258911	63.128578	-444.283447
5640.084625	-21.090576	50.270599	-436.159607
5640.087969	-29.272949	37.412621	-429.847473
5640.091288	-37.221497	25.080654	-421.665161
5640.094624	-44.585632	12.748684	-413.365906
5640.097957	-51.599060	1.059608	-404.716003
5640.101287	-58.320251	-10.454124	-394.546448
5640.104622	-64.281708	-21.675636	-384.552368
5640.107956	-70.360016	-33.014030	-373.623047
5640.111288	-76.204559	-44.235535	-362.226135
5640.114621	-81.581512	-54.171257	-351.472229
5640.117971	-86.549408	-63.931618	-338.848083
5640.121290	-91.166565	-74.977791	-327.977234
5640.125532	-98.764435	-93.329628	-302.436584
5640.128799	-101.745209	-101.979546	-288.585083
5640.132130	-105.076569	-111.038582	-275.434814
5640.135465	-107.648163	-118.928703	-260.706604
5640.138814	-109.869080	-126.877266	-247.322632
5640.142159	-112.089996	-134.475159	-232.652893
5640.145059	-113.375793	-141.605499	-218.625977
5640.148416	-115.070709	-148.677368	-203.780884
5640.151777	-115.596741	-154.346588	-189.753967
5640.155044	-116.122742	-161.418457	-175.201050
5640.158374	-116.181152	-166.620087	-160.531311
5640.161305	-116.356537	-172.055511	-145.569275
5640.164613	-115.888947	-176.497375	-130.665710
5640.167953	-115.479828	-182.108124	-115.995972
5640.171285	-114.018707	-186.257751	-100.332581
5640.174620	-113.200439	-190.348907	-86.188782
5640.177952	-111.680878	-194.556976	-71.226807
5640.181284	-109.635284	-197.362366	-56.323181
5640.184608	-107.823486	-200.869080	-42.004150
5640.187946	-105.719452	-203.206909	-27.801880
5640.191276	-103.323181	-204.960266	-13.891907
5640.194618	-101.277618	-207.473389	0.544128
5640.197947	-98.472229	-209.402100	13.811218
5640.201277	-95.199280	-210.571014	28.305664
5640.204629	-91.926361	-211.681458	41.338959
5640.207950	-89.237854	-212.733490	55.190491
5640.211281	-86.257141	-213.610168	67.054932
5640.214612	-83.042633	-214.837494	79.854462
5640.217945	-79.185272	-214.545288	92.537109
5640.221279	-75.503235	-214.545288	104.693726
5640.224612	-71.528931	-215.363525	116.265900
5640.227949	-68.372894	-214.720642	127.604340
5640.231280	-64.807709	-213.317932	138.533569
5640.234612	-60.833435	-213.668610	149.755096
5640.237945	-56.391602	-212.850372	160.216827
5640.241278	-53.177094	-211.856812	170.912323
5640.244608	-49.319702	-211.097015	181.315582
5640.247958	-44.819397	-210.161865	191.660400
5640.251272	-42.072449	-209.109894	201.187012
5640.254606	-37.104614	-207.648743	210.830475
5640.258865	-29.039154	-205.077148	229.766785
5640.262223	-24.831116	-203.206909	239.468689
5640.265454	-20.739899	-201.453522	247.592621
5640.268791	-16.181183	-200.635284	255.716522
5640.272137	-11.973114	-198.414368	263.898865
5640.275473	-7.531250	-196.485657	272.373444
5640.278422	-3.849213	-195.375214	280.731140
5640.281715	0.534210	-193.037384	288.445923
5640.285041	4.333130	-191.400940	296.745178
5640.288370	8.424316	-189.004669	303.817047
5640.291731	12.690826	-187.601990	311.590271
5640.295023	17.191132	-185.322632	317.902405
5640.298365	20.814728	-182.867920	324.915833
5640.301271	25.139679	-181.173004	331.520142
5640.304616	29.523102	-179.244324	338.299805
5640.307939	32.971375	-177.023376	344.670349
5640.311269	37.530090	-174.744019	351.333130
5640.314604	41.212158	-172.464630	357.119202
5640.317933	45.712463	-170.477509	362.846863
5640.321266	48.985382	-168.315002	368.457611
5640.324595	52.725891	-166.327881	374.243713
5640.327929	56.641724	-164.457642	379.153107
5640.331265	60.674469	-162.295166	384.237854
5640.334639	63.888947	-160.366455	388.855042
5640.337934	67.395660	-157.619537	392.829315
5640.341263	70.551727	-155.924622	398.147827
5640.344600	74.467560	-153.236115	402.472809
5640.347938	77.156036	-151.307434	407.031555
5640.351267	79.961426	-149.612518	411.122711
5640.354599	83.117493	-147.508484	415.213898
5640.357933	86.390411	-145.404449	418.895935
5640.361264	89.312683	-142.891296	422.168884
5640.364623	92.527191	-141.605499	425.850952
5640.367927	94.748093	-139.501465	428.247192
5640.371258	97.904160	-137.514313	432.572144
5640.374592	99.774414	-135.819397	434.909973
5640.377935	103.398010	-134.182953	436.955566
5640.381266	105.560501	-132.078888	440.403839
5640.384593	107.839874	-129.624207	443.267670
5640.387929	110.703690	-128.455292	445.430145
5640.391257	113.216827	-126.877266	448.060181
5640.394618	115.203979	-124.831688	451.333130
5640.397927	117.483353	-122.961418	453.028015
5640.401260	120.113373	-121.850960	456.242523
5640.404598	122.509644	-120.506721	458.171234
5640.407957	124.555237	-118.344246	460.625916
5640.411258	126.367050	-116.532448	462.671509
5640.414591	128.821732	-115.305092	464.658661
5640.419204	133.263596	-112.149040	469.275848
5640.422139	135.016937	-110.512566	471.204529
5640.425533	136.887192	-109.402107	473.133240
5640.428859	139.108139	-107.824089	475.237274
5640.432140	141.329056	-106.713631	477.808868
5640.435432	143.725296	-104.843361	479.036224
5640.438765	145.186447	-102.797783	481.140259
5640.442114	146.647583	-102.271767	482.075378
5640.445069	149.102280	-100.459969	484.120972
5640.448346	151.264771	-98.998833	485.582092
5640.451710	152.492111	-97.713036	486.926331
5640.455032	153.544128	-97.362358	488.329041
5640.458359	155.589722	-96.368782	489.556396
5640.461674	156.817062	-94.907661	491.251282
5640.464593	158.687317	-93.972542	492.946228
5640.467923	159.856232	-93.037407	494.115112
5640.471247	161.375809	-91.985390	495.400909
5640.474586	162.486267	-90.816490	496.102264
5640.477915	163.304504	-89.881355	497.388062
5640.481256	165.116318	-89.238457	498.030945
5640.484588	166.109879	-88.537117	499.082977
5640.487915	167.512573	-87.192863	498.907654
5640.491249	168.038574	-86.608421	499.901215
5640.494597	169.090591	-85.731743	501.479248
5640.497918	169.791946	-85.322624	501.362335
5640.501245	171.486862	-84.445946	502.414368
5640.504582	171.837524	-83.919930	503.115692
5640.507913	172.538864	-83.861488	503.583252
5640.511248	173.473999	-82.984810	504.343048
5640.514576	174.409119	-82.692589	504.167725
5640.517932	174.701355	-81.932793	504.985962
5640.521246	174.993576	-81.523674	505.336639
5640.524583	176.279373	-81.114555	505.804199
5640.527916	176.805374	-80.296318	505.745758
5640.531278	177.156052	-80.237877	507.206879
5640.534580	178.208069	-79.419655	507.849792
5640.537926	178.032730	-78.718285	507.674438
5640.541248	178.909409	-78.484505	508.200439
5640.544584	179.610748	-78.075401	508.258881
5640.547906	180.429001	-77.783165	509.018677
5640.551239	181.071899	-77.783165	509.778473
5640.554573	181.013443	-77.432503	509.135559
5640.557914	181.948563	-76.906487	510.129150
5640.561243	182.240799	-76.380470	510.012268
5640.564576	182.416138	-76.029808	511.181152
5640.567913	183.000595	-75.854485	511.940948
5640.571242	182.942139	-75.679131	511.473389
5640.574595	183.526596	-75.854485	511.005829
5640.579209	184.052597	-75.737587	512.466980
5640.582099	184.344833	-75.737587	513.051392
5640.585421	184.753952	-75.796028	512.817627
5640.588773	184.637054	-75.386909	512.992981
5640.592105	184.987732	-75.036232	512.992981
5640.595503	184.929276	-75.386909	512.817627
5640.598367	185.279953	-75.562248	512.466980
5640.601668	185.396835	-75.737587	513.343628
5640.604993	185.338409	-75.445351	513.460510
5640.608328	185.279953	-76.146690	512.642273
5640.611682	185.163055	-75.620705	512.350098
5640.614997	184.812393	-75.796028	512.583862
5640.617938	184.695496	-76.438927	512.350098
5640.621238	184.052597	-76.614265	512.116272
5640.624574	184.169495	-77.198723	511.999390
5640.627904	183.760376	-77.490944	510.830505
5640.631236	183.175919	-77.374046	510.421387
5640.634568	182.182358	-78.367622	510.538269
5640.637901	181.831680	-78.601402	509.953796
5640.641231	181.247223	-79.244301	510.070709
5640.644577	181.188782	-79.828758	508.609558
5640.647906	180.370544	-80.354774	509.194031
5640.651235	179.435425	-80.939217	508.492676
5640.654567	178.792526	-81.231453	507.791321
5640.657904	178.383408	-81.991249	508.025116
5640.661269	177.565170	-83.335487	507.265320
5640.664568	177.156052	-83.218590	505.921082
5640.667898	176.571594	-84.329048	505.278198
5640.671238	175.227356	-84.562843	504.284607
5640.674562	174.701355	-85.439507	504.576843
5640.677896	174.350677	-85.848625	503.466370
5640.681233	173.357101	-87.134438	502.706573
5640.684567	173.006424	-87.601997	502.472809
5640.687903	172.071304	-88.887779	501.245453
5640.691234	171.136185	-88.946236	500.076538
5640.694562	170.551727	-89.881355	499.667419
5640.697893	169.207474	-90.290474	499.199860
5640.701236	168.272354	-91.868507	498.147858
5640.704598	167.103455	-92.686729	497.212708
5640.707893	166.343658	-94.147865	496.336029
5640.711232	164.882538	-94.440102	495.985382
5640.714558	163.655182	-95.492104	495.050232
5640.717899	163.012283	-97.011696	493.705994
5640.721224	161.960266	-97.888374	492.537109
5640.724564	161.083588	-99.057274	491.251282
5640.728766	158.804214	-101.395088	488.679687
5640.732087	157.109299	-102.973122	487.919922
5640.735439	155.648163	-104.784935	485.991211
5640.738865	154.011688	-106.129173	484.296295
5640.742142	152.492111	-107.414970	483.068939
5640.745409	151.849213	-108.700768	481.432495
5640.748357	149.336060	-110.103447	480.029785
5640.751649	147.816498	-111.973701	478.451752
5640.754982	146.121582	-112.733498	477.165955
5640.758326	144.134430	-114.369957	474.419037
5640.761649	142.497955	-116.006432	472.431885
5640.764559	140.744598	-117.993584	470.444763
5640.767889	138.874344	-120.156044	467.814697
5640.771219	136.828766	-121.383400	465.418457
5640.774553	134.783173	-123.136772	463.314423
5640.777910	132.796021	-124.714790	460.275269
5640.781227	130.867340	-126.701942	458.288116
5640.784553	128.587967	-128.396851	455.190521
5640.787891	126.717712	-129.974884	452.677368
5640.791232	124.204559	-132.137360	450.807129
5640.794552	121.749863	-133.656921	448.118622
5640.797884	119.528946	-136.286957	445.137909
5640.801218	117.541794	-137.864990	442.449432
5640.804555	115.203979	-139.618347	439.059601
5640.807883	112.807709	-142.014618	435.845093
5640.811216	110.353027	-144.060181	432.747498
5640.814551	108.424316	-145.462891	429.883667
5640.817882	105.502060	-147.566925	425.967834
5640.821217	102.988892	-149.495605	423.513123
5640.824553	100.709534	-152.125641	420.415527
5640.827884	98.254822	-153.879028	416.382812
5640.831218	95.332550	-156.392181	412.233185
5640.834558	92.760956	-158.262421	408.375793
5640.837936	90.481598	-160.892487	404.752167
5640.841217	87.442413	-162.587402	399.725891
5640.844550	84.987732	-164.632965	396.160706
5640.847878	82.065460	-166.853882	392.537109
5640.851211	78.850952	-169.600830	388.036804
5640.854552	76.220917	-171.821747	383.127380
5640.857881	73.240204	-174.977783	377.691956
5640.861214	70.902405	-177.315613	372.782562
5640.864547	67.220337	-179.594971	367.931610
5640.867874	64.181183	-181.640564	363.022217
5640.871214	61.083588	-184.796600	357.060760
5640.875923	54.245483	-189.706024	344.845703
5640.878837	51.030975	-192.452972	339.410278
5640.882131	47.465790	-195.316772	332.396820
5640.885398	44.718903	-197.420776	325.441833
5640.888728	40.452362	-200.343079	319.889526
5640.892060	36.828766	-202.914673	312.057861
5640.895407	33.088257	-205.836945	304.518402
5640.898753	29.406189	-208.233185	297.037415
5640.901663	25.198120	-210.804810	289.264160
5640.904985	21.749847	-213.259491	281.432465
5640.908319	17.717133	-216.298645	273.133240
5640.911649	14.502625	-218.636475	264.366425
5640.914982	10.353027	-220.798950	255.482727
5640.918302	6.554047	-223.662750	247.008179
5640.921241	3.047363	-226.059021	237.832245
5640.924540	-1.452942	-228.396851	227.604309
5640.927873	-4.842773	-230.325531	219.012848
5640.931208	-8.583282	-232.663361	208.258911
5640.934541	-12.849792	-234.416687	198.089386
5640.937872	-16.590302	-236.696075	187.803009
5640.941208	-20.330811	-237.981873	177.399750
5640.944535	-23.545288	-240.495026	165.243103
5640.947875	-26.993561	-242.189941	155.365845
5640.951206	-29.974304	-243.651093	144.962585
5640.954537	-34.182343	-245.346008	133.156616
5640.957870	-37.513733	-246.339569	121.701324
5640.961202	-41.137329	-247.859161	109.544678
5640.964566	-44.293396	-249.437164	96.978943
5640.967868	-47.332550	-250.138489	85.582092
5640.971203	-49.962585	-250.956757	72.957886
5640.974539	-52.943298	-251.658081	60.509033
5640.977872	-55.865601	-252.417877	46.715912
5640.981203	-59.021637	-253.469910	34.559296
5640.984532	-61.242554	-253.352997	19.947937
5640.987868	-63.346588	-252.885437	6.622437
5640.991206	-65.450592	-252.593201	-7.462891
5640.994553	-67.729980	-252.125641	-21.256042
5640.997868	-69.834015	-251.833405	-35.633606
5641.001195	-71.412048	-250.839844	-50.303345
5641.004533	-73.106934	-250.196960	-64.914673
5641.007869	-74.334320	-248.443604	-80.753357
5641.011196	-76.263031	-246.514893	-95.890747
5641.014529	-77.081238	-245.053772	-111.320312
5641.017863	-78.016357	-243.358856	-125.931641
5641.021201	-78.425476	-240.085907	-142.004150
5641.024578	-78.133270	-236.637634	-157.024597
5641.027865	-78.893066	-233.656921	-173.447693
5641.031201	-78.542358	-230.091766	-188.585083
5641.034527	-78.367004	-225.825256	-203.956177
5641.039186	-76.672089	-215.889526	-236.334900
5641.042050	-75.327881	-210.863220	-251.706055
5641.045401	-73.223846	-204.726471	-267.135620
5641.048757	-71.938049	-198.998840	-282.915833
5641.052125	-68.548218	-192.452972	-298.286987
5641.055452	-66.151978	-185.381042	-312.898315
5641.058289	-63.404999	-178.192291	-327.685059
5641.061618	-60.132111	-170.945068	-343.056152
5641.064949	-55.924011	-163.288727	-356.615417
5641.068306	-52.300415	-154.872589	-370.466980
5641.071621	-48.209229	-146.573364	-383.500366
5641.074950	-43.241364	-137.923431	-397.001221
5641.077855	-38.331970	-128.513733	-410.618958
5641.081199	-33.480988	-119.396263	-421.898926
5641.084526	-27.110443	-108.466988	-432.828186
5641.087855	-21.791931	-98.940392	-444.751038
5641.091194	-15.947388	-88.011116	-455.388123
5641.094522	-8.057281	-77.666283	-465.908325
5641.097901	-1.628265	-66.561668	-475.317932
5641.101192	5.443604	-55.398613	-484.260132
5641.104527	13.509064	-43.417313	-492.968445
5641.107852	20.580933	-31.845131	-501.910583
5641.111228	28.880188	-20.448280	-509.508484
5641.114524	36.770325	-7.940979	-516.463562
5641.117853	46.063110	3.748100	-522.658752
5641.121188	54.946808	17.073639	-528.795471
5641.124545	64.005859	29.113380	-534.756897
5641.127857	73.766205	42.205139	-538.789612
5641.131186	83.234375	54.887779	-544.049744
5641.134521	92.936310	68.622437	-546.679749
5641.137859	103.398010	83.233780	-550.244812
5641.141185	112.866165	96.325539	-551.296936
5641.144516	123.444778	109.592636	-553.167175
5641.147852	133.789597	122.859726	-554.043884
5641.151186	144.718887	136.711273	-553.693176
5641.154534	155.531265	149.861481	-553.576233
5641.157847	166.869659	164.063690	-553.283997
5641.161197	177.331390	178.032135	-551.530701
5641.164519	188.436005	191.299240	-547.731750
5641.167858	199.774399	205.384552	-544.634094
5641.171185	210.645233	218.943878	-541.711853
5641.174518	222.042084	232.269440	-536.218079
5641.177852	233.731155	245.711853	-531.893005
5641.181178	245.653992	259.212738	-526.165466
5641.185808	267.512573	284.168915	-514.184143
5641.188714	278.032745	296.734650	-508.105774
5641.192125	288.903564	308.131500	-499.748108
5641.195453	299.014618	320.054352	-492.500916
5641.198759	309.476318	330.983643	-483.675659
5641.202030	319.821167	341.503815	-474.967224
5641.205362	329.756866	352.666870	-465.499207
5641.208264	338.582123	363.596161	-456.440125
5641.211609	349.394501	372.479828	-447.556458
5641.214933	358.862671	382.473999	-436.627136
5641.218279	367.571014	391.825256	-427.451172
5641.221621	376.863831	400.241364	-417.106384
5641.224951	385.279968	409.066620	-406.703125
5641.227841	393.286987	417.015198	-395.423157
5641.231177	401.410889	424.262421	-384.961487
5641.234511	409.651672	431.568085	-374.090637
5641.237844	417.308014	439.107544	-363.044434
5641.241204	424.964355	445.828766	-351.998291
5641.244509	432.211578	451.790192	-340.542969
5641.247842	439.049683	457.810059	-329.672119
5641.251180	445.887787	463.303925	-318.275330
5641.254518	452.667450	468.388672	-306.410828
5641.257840	459.271790	474.350098	-295.130981
5641.261174	465.583862	478.265930	-283.734070
5641.264509	472.188202	482.590881	-270.350159
5641.267841	477.798950	487.383392	-259.654602
5641.271168	483.585022	491.007019	-248.725342
5641.274503	488.377563	494.396851	-236.159607
5641.277836	493.696106	498.195801	-224.996521
5641.281174	498.313293	501.702515	-212.489197
5641.284521	503.164246	504.332550	-200.390991
5641.287848	507.956757	506.670349	-188.351257
5641.291173	512.457031	508.423737	-176.662231
5641.294500	516.606689	510.644653	-164.505615
5641.297844	520.697815	512.514893	-152.758057
5641.301170	524.438354	514.794250	-140.835205
5641.304502	527.652832	516.313843	-130.081238
5641.307841	531.334900	517.190491	-118.392212
5641.311166	534.549377	518.184082	-106.761536
5641.314503	536.945679	519.294556	-95.423157
5641.317839	539.634155	519.820557	-84.552368
5641.321166	542.439514	519.995911	-72.921692
5641.324502	544.251343	520.814148	-62.343079
5641.327854	546.296875	520.697205	-51.647583
5641.331169	548.284058	520.814148	-41.068970
5641.334501	550.271179	520.171204	-30.724182
5641.339184	553.076538	519.294556	-10.326721
5641.342092	554.537720	519.236084	-1.442993
5641.345340	555.706604	518.359436	8.200439
5641.348690	557.635315	517.833435	17.785492
