time (s)	magX	magY	magZ
5894.275874	436.361206	431.334290	230.351257
5894.279201	436.361206	433.438354	222.285767
5894.282534	435.367615	436.243713	215.447662
5894.285874	434.724731	438.172424	207.323792
5894.290500	432.620697	442.380463	192.244873
5894.293902	431.568665	444.542969	184.237854
5894.296731	430.282867	446.354767	175.003479
5894.300172	428.763306	448.166595	167.405579
5894.303447	427.419067	449.335480	158.346558
5894.306725	425.899475	451.088837	149.229095
5894.310082	424.146118	452.666870	140.170074
5894.313387	421.983643	453.835785	131.052582
5894.316296	420.522491	454.595551	122.870239
5894.319627	418.009338	455.647583	112.934540
5894.322957	415.320862	456.173584	102.531219
5894.326332	413.567505	457.342499	92.011108
5894.329635	410.002350	456.874939	82.367584
5894.332590	407.196960	457.517822	71.905884
5894.335861	403.865570	457.459381	61.444183
5894.339198	400.651093	457.108704	50.631805
5894.342532	396.969025	455.939819	39.527161
5894.345862	392.819397	454.595551	28.773193
5894.349200	389.604919	453.192871	17.025696
5894.352568	384.870850	451.731750	6.096375
5894.355856	380.487427	449.861511	-6.177124
5894.359197	375.928711	447.173004	-16.872620
5894.362527	371.019287	444.893646	-27.977234
5894.365857	365.817657	442.029816	-38.731140
5894.369193	360.499115	439.107544	-51.589172
5894.372530	355.063721	434.139679	-62.460022
5894.375854	349.628296	429.580933	-74.675049
5894.379188	342.848633	425.489777	-85.838135
5894.382524	337.296326	420.580353	-97.877869
5894.385854	330.867340	415.086517	-109.216248
5894.389195	325.841034	409.066620	-120.087097
5894.392527	319.470490	403.163635	-131.717712
5894.395883	313.684387	396.793091	-142.237854
5894.399191	306.729401	389.604340	-152.641174
5894.402528	300.534180	382.006439	-162.167725
5894.405853	294.514313	374.992981	-171.811279
5894.409193	288.319122	365.758636	-182.623657
5894.412524	282.182343	357.868500	-191.390442
5894.415853	275.344238	349.335480	-201.267700
5894.419187	268.564575	340.510223	-210.911194
5894.422522	261.726471	330.632965	-218.625977
5894.425854	254.420807	320.405029	-227.217468
5894.429191	247.582703	311.112213	-234.990662
5894.432518	240.335480	301.001160	-242.296326
5894.435851	232.503799	289.604309	-250.887817
5894.439202	224.789017	279.025726	-256.966125
5894.442516	217.424896	267.628876	-263.395142
5894.445857	209.476334	255.121552	-268.655151
5894.450104	194.514328	230.340729	-278.707764
5894.453367	186.974869	217.774963	-282.682068
5894.456700	179.727646	204.858551	-286.539429
5894.460035	171.720642	191.240784	-290.396851
5894.463400	163.538284	178.090576	-292.500916
5894.466715	155.998825	164.706604	-294.254272
5894.470100	147.816498	150.855057	-295.481628
5894.472950	140.335495	136.945053	-295.598450
5894.476299	131.977798	123.561066	-295.072510
5894.479608	124.847458	109.241959	-294.195801
5894.482981	117.541794	95.741089	-293.143799
5894.486271	110.294556	81.947983	-290.513794
5894.489617	103.573349	66.869080	-286.948547
5894.492948	96.443008	52.900639	-284.026306
5894.495845	90.072479	39.107536	-278.824646
5894.499180	83.526581	25.723553	-274.558105
5894.502512	77.857391	11.930450	-268.362976
5894.505845	72.129761	-1.278206	-262.401550
5894.509176	66.519012	-13.434837	-256.790771
5894.512520	61.668030	-25.825249	-248.257751
5894.515841	57.752197	-38.098778	-239.783203
5894.519180	53.135010	-49.963188	-231.308594
5894.522529	48.693146	-61.067787	-222.892517
5894.525863	45.478668	-72.815315	-213.950378
5894.529179	42.264191	-82.926369	-204.482178
5894.532513	39.634125	-92.978966	-194.254272
5894.535846	37.179413	-102.914680	-184.552368
5894.539178	35.250732	-112.324379	-174.441284
5894.542513	33.029816	-120.974281	-164.038025
5894.545841	31.568665	-129.565735	-152.524292
5894.549176	30.691986	-137.806549	-141.010559
5894.552509	29.581512	-144.703125	-130.431946
5894.555841	28.880188	-152.534790	-118.567505
5894.559174	28.295746	-159.431335	-106.878418
5894.562504	28.178833	-164.866730	-93.845154
5894.565844	28.295746	-171.295746	-83.032776
5894.569197	28.997101	-176.789612	-70.408569
5894.572511	28.295746	-182.225006	-57.316772
5894.575836	29.464661	-186.842194	-45.510803
5894.579177	30.224426	-191.576263	-32.419067
5894.582504	31.218018	-195.433655	-20.613098
5894.585838	32.153137	-199.057281	-6.294006
5894.589173	33.146698	-202.447113	6.388672
5894.592508	34.549377	-205.778473	19.363525
5894.595838	36.887207	-208.466980	32.922821
5894.599169	38.289886	-210.629456	47.008179
5894.602501	40.218597	-211.856812	59.866119
5894.607200	44.251312	-215.714203	86.692566
5894.610559	46.472229	-216.649323	99.608978
5894.613470	48.751617	-217.116882	111.765625
5894.616753	52.141418	-217.876678	124.798950
5894.620053	54.362366	-217.818237	136.955566
5894.623355	56.817047	-218.110474	149.112183
5894.626685	59.622467	-218.636475	161.210388
5894.630040	62.953827	-217.876678	173.659241
5894.632932	65.642303	-217.233765	185.289856
5894.636258	69.265930	-216.941559	196.394470
5894.639607	72.714203	-215.480438	207.323792
5894.642937	75.461121	-214.720642	217.843933
5894.646310	79.260101	-212.616577	228.305664
5894.649614	83.175934	-211.389221	238.358246
5894.652502	86.098206	-210.045013	248.469299
5894.655871	89.721802	-208.700745	257.352997
5894.659163	92.585602	-206.713623	266.236694
5894.662513	96.384583	-205.661591	275.061920
5894.665832	99.832855	-203.265350	283.653381
5894.669164	103.982483	-201.044434	291.777313
5894.672492	106.963181	-199.583282	299.433655
5894.675832	109.710129	-197.362366	307.616028
5894.679164	113.099930	-195.784332	314.629456
5894.682497	116.840439	-192.978943	321.701324
5894.685831	120.113373	-191.576263	329.065430
5894.689161	123.035645	-188.361755	335.552856
5894.692496	126.250153	-186.140839	341.163635
5894.695829	129.932220	-183.744598	347.475708
5894.699186	132.386902	-182.049683	354.255371
5894.702488	135.601410	-179.594971	360.392151
5894.705828	139.225006	-177.198700	366.295135
5894.709162	142.030380	-174.977783	371.204529
5894.712491	144.368195	-171.821747	377.224426
5894.715828	147.641144	-169.951508	382.367615
5894.719163	150.446518	-167.204559	387.569214
5894.722490	153.485687	-164.749847	392.595520
5894.725828	155.648163	-162.470490	397.212708
5894.729157	158.628876	-159.022217	402.706604
5894.732490	162.486267	-156.684418	407.732880
5894.735823	164.473404	-154.054352	412.759186
5894.739164	166.869659	-152.008789	417.259460
5894.742491	169.382828	-148.385162	421.759766
5894.745819	172.480423	-146.281128	426.084717
5894.749165	175.052017	-143.534180	430.585022
5894.752487	178.266510	-140.962585	435.026855
5894.755822	180.195221	-137.923431	438.124481
5894.760499	185.104630	-132.546448	446.248383
5894.763358	187.500885	-129.974884	449.112183
5894.766687	189.312683	-127.753960	452.911133
5894.770000	191.007599	-125.357689	456.359436
5894.773355	194.046768	-123.487434	458.989471
5894.776681	195.624786	-120.740501	462.437744
5894.780072	198.371704	-119.863838	464.600220
5894.782935	200.826416	-116.941551	467.113373
5894.786354	202.462891	-114.720634	470.620087
5894.789579	204.216263	-112.733498	472.724121
5894.792923	205.969604	-110.337227	475.587952
5894.796244	208.132095	-108.233192	476.756836
5894.799574	210.002335	-106.596733	479.503784
5894.802907	211.112793	-105.369377	481.958496
5894.805817	213.041504	-103.148460	484.296295
5894.809151	214.970200	-101.219765	485.582092
5894.812485	216.022202	-100.226189	486.984772
5894.815819	218.301590	-98.648170	489.381042
5894.819150	218.886032	-96.894798	490.666840
5894.822478	220.931610	-95.375221	492.303314
5894.825815	222.158966	-93.563408	493.822876
5894.829167	223.386322	-92.452950	494.582672
5894.832476	225.548798	-90.056694	496.803589
5894.835819	226.250153	-89.413795	497.446503
5894.839150	227.711288	-88.303337	498.732300
5894.842478	229.172409	-86.549965	499.725861
5894.845811	230.516663	-85.205727	501.362335
5894.849145	231.977798	-83.744591	502.472809
5894.852476	233.088257	-82.166573	503.524811
5894.855810	233.848053	-80.880775	504.226166
5894.859146	234.724731	-79.887215	505.921082
5894.862476	236.127411	-78.484505	506.856201
5894.865808	237.588562	-77.432503	508.141998
5894.869146	238.523682	-76.029808	508.784912
5894.872505	238.874344	-75.153130	510.129150
5894.875806	239.634125	-74.101112	510.421387
5894.879140	240.744598	-72.464638	511.940948
5894.882474	241.738159	-71.354179	512.759155
5894.885807	243.023972	-70.243721	513.402100
5894.889143	243.725311	-68.782585	514.337219
5894.892528	244.718872	-67.730568	514.804749
5894.895810	245.128006	-66.970772	516.149048
5894.899142	246.589127	-65.860313	517.610168
5894.902476	247.465820	-64.691414	517.960815
5894.905808	247.524261	-64.165398	518.603699
5894.909140	248.050262	-62.938057	519.772644
5894.912474	249.219177	-62.002937	520.473999
5894.917142	251.147873	-60.366447	521.175293
5894.920020	251.440094	-59.840446	521.759766
5894.923396	252.141449	-58.671547	522.344238
5894.926730	252.492111	-57.970207	522.285767
5894.930048	253.485687	-57.794853	523.104004
5894.933318	253.894806	-57.444191	523.980713
5894.936660	254.829926	-56.742851	524.448242
5894.940014	254.829926	-56.392174	525.032715
5894.942896	255.239044	-55.924599	524.506714
5894.946231	255.648163	-55.866173	525.558716
5894.949564	256.057281	-55.398613	525.149597
5894.952908	256.291077	-54.814140	525.500244
5894.956248	256.232605	-54.463478	525.558716
5894.959165	256.232605	-54.697258	525.734070
5894.962471	256.992401	-54.346581	525.675598
5894.965819	257.050842	-54.171257	526.026306
5894.969132	256.933960	-53.879021	525.734070
5894.972469	257.576843	-53.469902	525.850952
5894.975797	257.401520	-53.353004	526.201599
5894.979131	257.518433	-53.294579	526.610718
5894.982460	257.810638	-53.002342	527.370544
5894.985797	258.336639	-53.294579	527.195190
5894.989137	258.161316	-53.177681	526.844543
5894.992467	257.927521	-53.002342	526.376953
5894.995801	258.453552	-53.060799	526.318481
5894.999132	258.511993	-52.768562	527.428955
5895.002491	258.044434	-52.710114	526.786072
5895.005792	257.810638	-52.827003	526.493835
5895.009130	258.511993	-52.534782	526.727600
5895.012466	258.570435	-52.359451	526.260071
5895.015790	258.453552	-52.067223	525.558716
5895.019127	258.511993	-52.184105	526.610718
5895.022474	258.804199	-52.008774	526.552307
5895.025802	258.687317	-51.716537	527.370544
5895.029131	258.628876	-51.950325	527.078308
5895.032465	258.395081	-52.359451	528.188782
5895.035795	258.278198	-52.534782	528.656311
5895.039130	258.044434	-52.301003	528.422546
5895.042462	257.576843	-52.476334	528.305664
5895.045791	257.810638	-52.359451	527.604309
5895.049125	257.576843	-52.651665	527.136719
5895.052464	257.284637	-53.703682	526.610718
5895.055796	257.635315	-53.411461	527.019836
5895.059124	256.817078	-53.995918	527.019836
5895.062456	256.817078	-54.229698	526.201599
5895.065793	256.349518	-54.638817	525.909363
5895.070055	256.232605	-55.281715	525.266479
5895.073369	255.823486	-56.158394	524.974243
5895.076648	255.472824	-57.035072	525.032715
5895.079963	255.180603	-57.794853	524.389832
5895.083313	254.713043	-58.203987	524.097595
5895.086660	254.187027	-58.963768	523.220886
5895.089583	253.661011	-60.308022	522.285767
5895.092891	253.310349	-60.775581	522.344238
5895.096238	252.959686	-61.243141	521.642883
5895.099569	252.609009	-62.412041	521.175293
5895.102897	251.498535	-63.230278	521.058411
5895.106206	250.621857	-63.580956	520.298645
5895.109549	249.920517	-64.808311	519.305054
5895.112454	249.043839	-66.094093	518.428406
5895.115785	248.576263	-66.853889	517.376343
5895.119115	247.933380	-67.847466	517.317932
5895.122457	246.939804	-68.957924	516.733459
5895.125783	246.647583	-69.600822	515.564575
5895.129119	245.244888	-70.886620	514.746338
5895.132472	244.368210	-71.646416	513.694336
5895.135783	243.842194	-73.282890	513.051392
5895.139117	243.082397	-73.808876	512.642273
5895.142450	241.913498	-74.919350	511.648712
5895.145778	241.329056	-75.912910	510.187592
5895.149117	240.277039	-77.374046	509.720032
5895.152446	239.341904	-78.192299	508.667999
5895.155831	238.348328	-79.361198	508.784912
5895.159116	237.004089	-80.822334	507.440674
5895.162455	236.419647	-81.699013	506.505524
5895.165782	235.426071	-83.043251	505.687286
5895.169110	234.257172	-84.153709	503.817047
5895.172452	233.088257	-85.556404	502.648132
5895.175822	231.510239	-86.842201	501.596130
5895.179114	230.458221	-88.127998	500.427216
5895.182446	229.464630	-89.472252	499.199860
5895.185779	228.412628	-90.933388	498.381622
5895.189108	226.425476	-93.037407	496.511383
5895.192440	225.665695	-94.732323	495.342468
5895.195780	224.087677	-96.485680	493.472229
5895.199114	222.626526	-98.297493	491.075958
5895.202445	222.217422	-100.109306	490.316162
5895.205776	219.996490	-101.862648	488.095245
5895.209109	218.710693	-103.557579	486.517212
5895.212437	217.308014	-106.012276	483.945618
5895.215772	215.613098	-107.999413	481.432495
5895.219136	214.444183	-110.395683	479.328430
5895.222440	212.515488	-111.856819	476.464630
5895.227068	209.242554	-116.532448	471.672119
5895.229967	206.963181	-118.519585	468.282288
5895.233314	205.502045	-121.208076	465.886017
5895.236654	203.748688	-123.954994	462.379303
5895.240036	201.703094	-126.000587	459.457031
5895.243359	199.774399	-128.572174	456.534760
5895.246646	197.670364	-130.325531	453.670929
5895.249574	195.683228	-133.364716	450.865570
5895.252862	194.046768	-135.234955	447.358826
5895.256193	190.832260	-138.098785	442.800110
5895.259527	188.845123	-139.618347	439.585602
5895.262879	186.916428	-142.482178	435.085327
5895.266189	184.812393	-145.346008	432.221497
5895.269544	182.649918	-147.683807	428.422546
5895.272439	180.019867	-150.430725	424.097595
5895.275769	178.032730	-152.534790	420.181763
5895.279103	174.818237	-154.872589	416.032104
5895.282438	172.831100	-157.561066	412.525391
5895.285770	170.201050	-160.541779	406.213318
5895.289105	167.044998	-162.587402	402.297485
5895.292464	164.765640	-165.042084	397.797180
5895.295767	162.427826	-167.789001	393.589111
5895.299097	159.680893	-169.542358	388.562805
5895.302441	157.226181	-171.997070	383.244293
5895.305781	154.362366	-174.802460	377.516632
5895.309098	151.556976	-177.432495	372.490326
5895.312432	148.342499	-180.120972	367.464050
5895.315762	145.537109	-182.517242	360.976593
5895.319096	143.199310	-185.205719	354.722961
5895.322427	139.751038	-188.011108	348.060181
5895.325762	137.413223	-190.699585	341.806519
5895.329095	134.841614	-193.680298	334.442413
5895.332429	132.562256	-196.427216	327.078308
5895.335778	129.230865	-198.881927	319.831055
5895.339124	126.074814	-201.219757	312.291626
5895.342428	122.626541	-204.609589	304.050842
5895.345767	119.879608	-206.713623	295.576233
5895.349104	116.898895	-209.518982	287.627686
5895.352431	114.035065	-211.973694	278.276428
5895.355766	111.288147	-214.428406	269.451172
5895.359098	108.073639	-216.590881	259.632355
5895.362429	104.683807	-218.811798	249.755096
5895.365756	102.053772	-220.272919	240.462280
5895.369099	99.482178	-222.552307	229.357666
5895.373773	93.812973	-226.877258	206.973083
5895.377104	90.540039	-227.637054	195.985382
5895.380045	88.026886	-229.156647	185.231445
5895.383388	85.338409	-230.383972	173.308563
5895.386611	82.825256	-231.786652	160.041473
5895.389945	79.376984	-232.721771	148.352417
5895.393278	76.162476	-233.247803	136.955566
5895.396619	74.000000	-232.663361	124.857361
5895.399520	71.077728	-232.955566	112.817657
5895.402873	68.973724	-232.780243	99.959656
5895.406199	66.519012	-232.254211	87.861481
5895.409554	63.655151	-231.436005	75.120392
5895.412861	61.375824	-230.091766	61.677979
5895.416183	59.622467	-228.864410	48.644623
5895.419092	57.985962	-227.344818	35.962006
5895.422458	55.940399	-225.474579	21.935120
5895.425751	54.303925	-223.195190	10.012207
5895.429091	52.784363	-220.506714	-3.371704
5895.432417	51.381653	-217.292206	-15.995972
5895.435760	50.621857	-214.545288	-29.789001
5895.439090	49.102295	-210.571014	-42.296326
5895.442424	48.693146	-207.064301	-55.446533
5895.445749	47.991821	-202.739349	-68.830505
5895.449084	48.342499	-198.472809	-83.149658
5895.452419	48.225586	-193.446533	-95.364746
5895.455752	48.225586	-188.595551	-109.625427
5895.459088	49.043823	-182.225006	-122.132690
5895.462422	49.686737	-176.380463	-135.575134
5895.465774	50.797211	-169.600830	-148.199341
5895.469081	52.608978	-162.412048	-160.648193
5895.472414	54.654602	-155.573914	-173.681519
5895.475748	56.407959	-147.976044	-185.019897
5895.479098	59.096436	-139.150787	-197.293396
5895.482414	61.375824	-130.442444	-208.748718
5895.485748	64.473419	-121.441856	-220.262451
5895.489085	68.447693	-111.272362	-231.542419
5895.492410	71.837524	-101.161308	-241.010559
5895.495747	76.337830	-90.582710	-251.647583
5895.499078	80.604309	-80.062538	-261.115784
5895.502411	85.747528	-68.256584	-270.583862
5895.505742	90.656921	-56.801292	-277.714233
5895.509076	95.566345	-44.469322	-285.253662
5895.512411	100.183517	-31.728233	-292.968445
5895.515741	106.378723	-19.337822	-299.514343
5895.519079	111.288147	-6.070717	-304.306824
5895.523316	124.087677	20.288128	-314.242493
5895.526593	129.873749	33.847454	-318.801270
5895.529934	136.302765	47.582111	-320.554687
5895.533278	142.965515	61.199879	-323.126282
5895.536606	149.511398	75.051430	-323.243103
5895.539548	155.648163	89.545876	-323.886047
5895.542858	162.310944	103.105194	-324.879639
5895.546200	169.441269	116.313850	-324.236755
5895.549519	176.162491	130.691406	-322.015808
5895.552869	183.175919	143.958496	-319.677979
5895.556166	190.130920	157.693161	-317.632385
5895.559069	196.326126	170.901810	-314.476379
5895.562415	203.807129	183.759796	-310.443665
5895.565735	210.645233	197.728241	-306.294006
5895.569073	218.476913	210.352417	-301.209229
5895.572404	224.905914	222.392181	-297.527161
5895.575734	232.503799	235.191681	-290.630676
5895.579072	240.335480	246.997650	-284.610779
5895.582407	247.758026	258.452942	-278.415527
5895.585741	254.771484	270.843353	-271.635864
5895.589067	262.369385	282.123322	-264.154846
5895.592404	269.733490	292.351257	-256.498535
5895.595747	277.097595	303.105194	-248.374695
5895.599080	284.344849	313.450012	-239.315613
5895.602401	291.825836	323.210388	-230.139709
5895.605737	299.073059	333.204559	-221.665100
5895.609070	306.028046	342.088257	-211.963196
5895.612400	312.983063	350.796631	-202.728821
5895.615737	320.230286	359.680328	-192.442444
5895.619065	327.243713	367.687317	-181.805359
5895.622404	333.906494	375.928101	-170.992981
5895.625750	340.510803	383.292206	-160.239014
5895.629071	347.115143	390.422546	-149.134460
5895.632400	354.187042	396.384003	-137.386902
5895.635728	360.382233	403.397430	-126.106995
5895.639065	365.992981	408.482178	-114.242554
5895.642395	371.253082	414.443604	-102.904175
5895.645733	376.571594	419.586792	-91.799561
5895.649069	381.481018	424.729980	-79.876709
5895.652395	386.565765	428.295166	-67.661621
5895.655781	391.007599	432.327881	-55.505005
5895.659068	395.274109	436.302155	-44.867920
5895.662437	398.722382	439.516663	-32.360596
5895.665733	402.579773	441.737579	-22.074219
5895.669088	406.846283	444.484528	-9.450073
5895.673694	413.158386	448.225006	12.466919
5895.676604	415.320862	449.627716	23.863831
5895.679923	418.886047	451.205719	34.442413
5895.683324	421.282288	451.907074	45.313263
5895.686688	423.386322	452.608429	56.534760
5895.689985	425.490356	452.608429	66.119812
5895.693263	427.594391	453.192871	75.587921
5895.696149	429.639984	452.842224	86.575684
5895.699483	430.925781	452.725311	96.219147
5895.702824	432.912903	453.309784	105.862640
5895.706153	434.724731	451.907074	114.980103
5895.709485	436.185852	451.322632	123.396240
