time (s)	magX	magY	magZ
3372.531842	404.566925	387.617187	297.329590
3372.535164	403.456451	390.481018	289.439514
3372.538493	401.586212	392.760376	280.438904
3372.541402	400.066620	395.799530	271.379883
3372.544734	398.780823	398.721802	262.437744
3372.548073	397.085907	400.299835	253.320251
3372.551400	394.923431	403.455872	244.670349
3372.554736	392.702515	405.676788	234.851532
3372.558073	390.540039	407.547028	224.623596
3372.561400	387.968445	409.008179	214.921661
3372.564736	385.747528	410.761536	203.641724
3372.568086	382.591461	411.346008	193.589111
3372.571394	380.136780	412.339569	182.542938
3372.574736	376.863831	413.099365	171.555206
3372.578064	372.597321	412.748688	159.047913
3372.581397	369.499695	412.456451	147.592621
3372.584729	366.051422	411.579773	136.195770
3372.588086	362.018707	411.053772	124.272919
3372.591395	357.518402	409.125092	111.590271
3372.594735	352.784332	407.547028	99.141449
3372.598070	347.348907	405.033905	87.160156
3372.601400	341.738159	402.170074	74.068329
3372.604727	336.361206	398.078918	62.496185
3372.608061	330.282867	395.331970	49.287537
3372.611431	324.555237	390.773254	37.481567
3372.614728	318.476929	385.454712	25.208038
3372.618067	312.398590	379.142609	12.583862
3372.621400	305.677368	372.947418	1.128540
3372.624725	298.196381	366.459961	-10.443604
3372.628056	290.832275	358.686737	-22.717163
3372.631391	283.643494	350.855072	-33.295715
3372.634727	276.454712	342.205139	-43.932800
3372.638063	268.623047	333.087677	-53.693176
3372.641391	261.025146	323.677948	-63.102905
3372.644721	253.193451	314.268280	-72.921692
3372.648054	245.128006	303.748108	-80.168945
3372.652726	228.997070	281.421967	-95.306274
3372.655614	221.399170	270.901825	-103.371704
3372.658902	213.742844	258.336060	-108.748718
3372.662261	205.443604	246.004089	-113.774963
3372.665615	198.605499	233.964355	-119.385803
3372.668969	190.656921	220.872589	-123.184692
3372.672305	183.409698	208.073059	-126.574524
3372.675191	176.162491	194.922852	-129.847473
3372.678507	168.798370	181.714203	-131.893066
3372.681819	162.077148	168.797775	-133.471069
3372.685153	155.940399	155.238449	-133.412659
3372.688479	148.459396	141.796021	-133.880188
3372.691820	142.731735	127.827576	-132.652893
3372.695150	136.711868	114.794266	-130.724182
3372.698081	130.984207	101.293396	-128.970764
3372.701383	125.490356	88.143188	-126.691467
3372.704723	120.288727	73.356514	-122.191162
3372.708057	115.028641	60.381645	-118.216858
3372.711384	110.353027	47.523666	-113.248962
3372.714720	105.735825	34.373459	-106.644714
3372.718067	102.462891	21.807713	-100.566345
3372.721385	98.371719	9.417297	-93.786682
3372.724721	94.923447	-2.680893	-85.545898
3372.728047	91.416718	-14.077736	-77.597351
3372.731383	89.254242	-25.299248	-68.713623
3372.734715	86.390411	-36.345421	-57.959717
3372.738050	84.169495	-46.924026	-47.673279
3372.741403	82.123901	-56.625954	-37.562256
3372.744714	80.662781	-66.386330	-26.165405
3372.748051	80.195221	-75.620705	-15.002380
3372.751380	79.376984	-84.036827	-2.436584
3372.754718	78.850952	-92.043846	9.661560
3372.758051	78.441864	-99.232613	22.402649
3372.761384	78.909424	-106.129173	34.851532
3372.764711	79.084747	-112.791939	48.293945
3372.768047	79.961426	-118.168907	61.677979
3372.771380	81.422577	-123.312096	74.828125
3372.774705	82.065460	-127.929298	87.510803
3372.778044	83.994141	-132.137360	99.901184
3372.781382	86.390411	-136.053192	113.577393
3372.784761	88.494446	-139.443024	126.435425
3372.788045	90.306274	-141.371704	139.176514
3372.791380	92.936310	-143.592621	149.988892
3372.794715	95.507889	-146.514893	163.781982
3372.798040	98.488602	-147.859161	175.587952
3372.801377	101.118637	-149.554077	186.751007
3372.804712	103.748688	-150.080078	198.089386
3372.808046	106.963181	-150.781433	209.018707
3372.812714	113.041504	-151.307434	230.117462
3372.815580	116.197540	-151.073639	240.345398
3372.818965	119.295151	-151.073639	251.040894
3372.822324	122.977219	-150.489197	260.859711
3372.825652	126.834610	-149.612518	270.561646
3372.828940	129.932220	-147.800690	279.737549
3372.832224	133.672714	-147.099365	288.971924
3372.835163	137.296326	-145.579773	298.030945
3372.838472	140.803055	-144.469330	306.330200
3372.841793	144.192871	-143.358856	313.869659
3372.845131	147.874924	-141.605499	322.227356
3372.848484	151.440094	-139.852142	330.585022
3372.851828	155.063705	-137.981873	339.118042
3372.855140	158.453537	-136.520752	347.417297
3372.858036	162.077148	-134.358276	354.430725
3372.861367	165.408524	-131.903564	362.320862
3372.864707	168.856812	-129.507324	368.574493
3372.868043	172.538864	-127.169502	375.061920
3372.871405	176.162491	-125.065453	382.601379
3372.874698	179.552307	-122.961418	388.971924
3372.878036	183.000595	-120.331398	394.465790
3372.881370	186.331985	-117.993584	400.894775
3372.884700	189.546463	-115.012856	408.434235
3372.888032	192.936295	-112.733498	413.168304
3372.891371	196.150787	-109.928123	418.428375
3372.894702	199.365280	-107.064293	423.396240
3372.898038	201.703094	-105.018715	427.721191
3372.901368	205.209824	-102.505547	432.922852
3372.904697	207.722977	-99.758629	437.773804
3372.908029	210.177673	-97.070137	442.449432
3372.911364	213.158401	-94.323204	447.358826
3372.914715	216.197556	-91.985390	450.690216
3372.918027	218.769150	-89.296913	454.138489
3372.921367	221.106964	-87.368217	457.469879
3372.924695	223.912338	-84.621269	460.684387
3372.928028	226.133255	-82.225029	464.366425
3372.931358	228.120392	-80.296318	467.639374
3372.934693	231.042664	-77.841621	471.263000
3372.938027	232.971359	-75.679131	473.776123
3372.941358	235.250732	-73.282890	476.347717
3372.944701	236.770309	-71.178856	479.153107
3372.948028	238.815887	-69.483940	480.848022
3372.951366	241.095276	-67.730568	483.419617
3372.954698	242.614838	-66.210991	486.225006
3372.958053	244.660431	-63.990074	487.277008
3372.961364	246.413788	-61.593803	490.140839
3372.964692	247.991821	-59.665108	491.543518
3372.968950	251.089417	-56.801292	495.517822
3372.972273	252.784332	-54.580360	497.504944
3372.975540	254.771484	-52.885445	499.082977
3372.978880	256.466400	-51.599655	500.544098
3372.982227	258.336639	-49.554062	502.472809
3372.985555	259.213318	-47.625374	503.232605
3372.988909	261.142029	-45.462891	505.570404
3372.991795	262.369385	-44.703102	507.031555
3372.995125	263.362946	-42.540619	508.025116
3372.998471	265.174744	-41.021049	509.310913
3373.001818	266.577454	-39.559914	510.304474
3373.005111	268.213928	-37.689659	511.648712
3373.008449	269.324371	-36.696083	512.759155
3373.011781	270.376404	-35.410294	514.629456
3373.014683	271.428406	-33.890709	516.149048
3373.018015	272.831116	-32.254242	516.967224
3373.021353	273.298645	-30.500877	518.253052
3373.024688	274.701355	-29.565750	519.246643
3373.028019	276.220917	-28.046181	519.772644
3373.031357	276.863831	-26.877274	521.526001
3373.034682	277.623596	-25.649918	521.935120
3373.038019	278.558746	-24.422562	523.805359
3373.041356	279.902985	-23.721214	523.863831
3373.044690	280.721222	-21.792526	524.974243
3373.048046	281.890137	-21.266510	526.026306
3373.051355	282.708374	-20.156052	526.727600
3373.054688	283.760376	-18.636475	527.253662
3373.058020	284.286377	-18.344246	528.773193
3373.061350	285.163055	-17.000008	528.773193
3373.064686	286.215088	-16.357101	529.591431
3373.068011	286.916443	-15.305092	530.877258
3373.071348	287.559326	-14.720634	530.877258
3373.074683	288.202209	-13.551727	531.461670
3373.078013	288.903564	-13.084167	531.987732
3373.081355	289.780243	-11.856812	532.689026
3373.084679	290.540039	-11.330803	532.981262
3373.088042	290.890717	-10.571014	533.039734
3373.091349	291.358276	-10.161896	533.448853
3373.094683	291.592041	-9.869667	534.208618
3373.098012	292.293396	-9.109886	533.799500
3373.101343	292.585632	-8.642319	533.974854
3373.104678	293.871429	-8.116310	535.202209
3373.108013	293.228516	-7.298073	535.026855
3373.111361	293.696075	-7.181183	535.494446
3373.114681	294.046753	-6.830513	534.851501
3373.118015	294.864990	-6.070717	535.786682
3373.121346	295.215668	-6.070717	536.254211
3373.125985	295.683228	-5.310936	535.961975
3373.128873	296.033905	-4.668030	536.897095
3373.132254	297.261261	-4.551140	536.312683
3373.135544	296.910583	-4.083580	536.721802
3373.138944	296.618347	-3.382233	536.604919
3373.142282	297.845703	-3.206902	537.189331
3373.145533	298.079498	-3.323792	537.306213
3373.148850	298.079498	-2.564003	538.007568
3373.151767	298.547058	-2.096436	538.299805
3373.155094	299.073059	-1.511986	537.773804
3373.158430	299.306854	-1.687325	538.592041
3373.161765	299.482178	-1.161308	538.299805
3373.165111	299.482178	-1.219757	539.702515
3373.168445	300.183533	-0.518417	539.293396
3373.171336	299.715973	-0.284637	539.936279
3373.174712	300.008179	0.182930	539.468689
3373.178006	300.767975	0.241379	539.994751
3373.181343	300.884857	0.533600	539.410278
3373.184673	301.293976	0.650490	539.059570
3373.188001	300.884857	0.592049	540.053162
3373.191336	300.417297	0.533600	540.286926
3373.194672	301.001770	0.592049	539.994751
3373.198006	300.943298	0.825829	540.111633
3373.201336	301.527771	0.416710	540.345398
3373.204668	301.060211	0.299820	539.585632
3373.208004	301.060211	0.708939	539.176514
3373.211344	301.177094	0.475159	540.111633
3373.214670	300.767975	0.358269	539.410278
3373.218022	301.410889	-0.050850	539.877808
3373.221330	300.767975	0.007591	540.111633
3373.224674	301.235535	-0.459969	540.053162
3373.227998	300.767975	-0.576859	539.118042
3373.231333	300.943298	-1.102867	539.468689
3373.234667	301.060211	-0.927528	538.650452
3373.238001	301.001770	-1.278206	539.527161
3373.241331	300.592651	-1.804214	538.884277
3373.244665	300.358856	-1.628876	539.410278
3373.247997	300.358856	-2.213326	538.592041
3373.251334	300.183533	-2.622444	538.416687
3373.254663	300.183533	-3.031563	538.942688
3373.258001	299.891296	-3.206902	537.832214
3373.261363	300.300415	-3.849800	537.890686
3373.264663	299.365295	-4.609589	537.423096
3373.267991	299.073059	-5.018707	537.481567
3373.271327	299.423737	-5.369377	537.715332
3373.274661	299.073059	-5.603157	536.838684
3373.277997	299.248383	-6.129166	536.604919
3373.282677	298.663940	-7.005852	536.604919
3373.285603	298.488617	-7.940979	535.786682
3373.288926	298.371704	-8.116310	536.838684
3373.292185	297.611938	-8.700760	535.435974
3373.295509	297.495026	-9.051437	535.611328
3373.298855	297.553467	-9.402107	535.494446
3373.302199	296.969025	-9.811226	535.319092
3373.305124	297.144348	-11.038574	535.845093
3373.308435	295.917023	-12.149040	535.435974
3373.311772	296.033905	-12.207481	533.974854
3373.315105	295.449463	-12.850388	533.624207
3373.318421	294.981873	-13.785507	534.325500
3373.321751	294.514313	-14.311516	533.624207
3373.325091	294.338989	-14.895966	532.689026
3373.327992	293.520752	-15.597313	531.987732
3373.331326	293.637634	-17.058449	531.520142
3373.334658	293.111633	-17.759796	531.520142
3373.337989	292.410278	-18.636475	530.935669
3373.341324	291.767395	-19.805382	529.766785
3373.344658	291.241394	-19.805382	529.591431
3373.348005	290.890717	-21.383400	528.422546
3373.351325	289.897156	-22.844536	527.662781
3373.354658	289.838684	-23.896553	527.428955
3373.357987	288.845123	-25.240799	526.669189
3373.361323	287.968445	-26.059029	526.026306
3373.364652	287.559326	-27.870842	525.792480
3373.368000	286.682648	-28.981300	523.863831
3373.371321	285.747528	-30.150208	522.753357
3373.374653	285.572174	-31.260666	522.461121
3373.377988	283.877258	-32.721802	520.473999
3373.381317	283.585022	-34.825836	520.240173
3373.384652	282.240784	-35.994743	518.779053
3373.387988	281.714783	-37.806541	517.668579
3373.391358	280.896545	-39.559914	516.850342
3373.394645	279.727661	-40.787270	515.155457
3373.397990	278.675629	-42.131508	514.746338
3373.401320	277.857391	-44.586220	513.460510
3373.404648	277.097595	-45.988907	512.057861
3373.407982	275.928711	-47.976036	510.713593
3373.411312	274.759796	-49.670959	509.720032
3373.414646	273.824646	-52.125664	508.843353
3373.417982	272.714203	-53.528358	507.089996
3373.421312	271.779083	-55.164818	505.628845
3373.424648	270.668610	-56.976631	503.700165
3373.427982	269.850372	-59.255989	501.771454
3373.431323	268.389252	-60.834007	500.777893
3373.434671	267.337219	-63.113396	499.024536
3373.439260	264.999420	-67.672127	495.108704
3373.442628	263.187622	-69.834602	492.653992
3373.445517	262.252502	-71.471077	491.251282
3373.448846	261.142029	-73.984230	490.140839
3373.452226	259.271790	-76.263588	487.510803
3373.455568	257.752197	-79.010521	484.939209
3373.458939	256.291077	-81.056114	482.016937
3373.462159	255.297485	-83.452370	480.088226
3373.465073	253.602570	-86.023964	477.516632
3373.468398	252.199890	-89.296913	474.945038
3373.471731	250.095856	-91.751610	471.379883
3373.475070	249.043839	-94.089424	468.749847
3373.478442	246.998260	-96.602577	465.359985
3373.481754	245.478668	-99.583290	461.619507
3373.484642	243.374634	-102.622444	458.112793
3373.487977	241.855072	-105.603157	454.547607
3373.491306	240.101700	-108.583885	449.755096
3373.494715	238.114548	-111.389259	445.722351
3373.497978	235.776733	-115.421974	440.696075
3373.501311	233.964935	-118.285805	436.897125
3373.504641	231.919342	-121.324959	432.221497
3373.507978	230.399765	-124.714790	427.019867
3373.511304	227.360611	-127.870827	421.350647
3373.514635	225.256577	-131.436005	416.558136
3373.517972	223.210999	-134.416718	410.246033
3373.521305	220.814728	-138.098785	404.050842
3373.524634	219.061371	-141.722382	396.803589
3373.527983	217.015778	-144.703125	390.783752
3373.531303	215.145538	-148.034485	383.887177
3373.534637	212.515488	-151.307434	376.932190
3373.537974	210.294571	-154.814148	369.860291
3373.541306	208.424316	-158.437775	362.613068
3373.544636	205.911163	-161.418457	354.313843
3373.547964	204.742249	-164.516083	346.599060
3373.551303	202.287552	-166.912323	339.351807
3373.554637	200.183533	-170.419067	330.818787
3373.557968	198.079498	-174.159546	321.935120
3373.561301	195.507904	-176.848053	313.226746
3373.564683	193.579193	-179.711884	304.284607
3373.567965	191.825836	-181.991211	295.400909
3373.571317	189.955582	-184.913483	286.341888
3373.574630	188.319107	-188.420227	275.646393
3373.577967	185.513733	-190.290466	266.412018
3373.581296	183.409698	-192.569824	255.541199
3373.584634	181.948563	-195.258331	244.728790
3373.587964	180.195221	-197.011688	233.741089
3373.591295	178.208069	-198.998840	221.818207
3373.594631	175.694916	-200.050842	210.888947
3373.599300	173.298660	-202.973114	186.049652
3373.602198	171.662186	-203.908234	173.834564
3373.605574	170.142609	-204.551117	160.275269
3373.608919	169.207474	-204.843353	146.774384
3373.612156	168.272354	-205.018677	133.448853
3373.615510	167.395676	-205.310913	118.837494
3373.618813	167.395676	-204.726471	105.044403
3373.621715	166.811218	-204.200470	89.790131
3373.625042	166.402100	-202.330200	74.068329
3373.628389	166.986557	-200.167725	59.573914
3373.631759	166.869659	-197.888367	43.326111
3373.635068	168.038574	-195.433655	29.240784
3373.638408	168.681488	-191.926941	14.278809
3373.641712	169.908829	-187.894196	-1.501465
3373.644623	171.779068	-183.978363	-16.171265
3373.647959	173.006424	-178.835175	-31.776184
3373.651327	175.753357	-173.867340	-46.738159
3373.654624	178.383408	-167.496796	-61.232605
3373.657959	181.013443	-161.593811	-76.019287
3373.661293	184.344833	-154.580353	-90.513794
3373.664622	187.150208	-146.573364	-103.254883
3373.667949	191.182938	-138.975464	-116.346619
3373.671290	195.157227	-130.091766	-128.503235
3373.674627	199.189957	-120.214500	-141.594971
3373.677955	203.807129	-110.337227	-152.348938
3373.681289	209.417877	-99.817070	-163.278198
3373.684622	214.327301	-88.770897	-173.447693
3373.687958	220.230270	-77.666283	-183.032776
3373.691291	225.548798	-65.977211	-190.279968
3373.694639	232.386917	-53.528358	-198.286987
3373.697951	238.348328	-40.845703	-205.358826
3373.701299	244.485092	-28.396843	-210.618958
3373.704622	250.855652	-15.363533	-216.814148
3373.707956	257.226196	-2.330215	-220.963806
3373.711284	263.888977	11.053764	-224.236755
3373.714619	270.727051	25.665108	-226.925171
3373.717950	278.266510	38.932201	-228.970764
3373.721282	285.163055	53.251312	-229.847473
3373.724623	293.228516	67.395088	-230.665710
3373.727953	300.183533	82.532433	-229.321472
3373.731283	307.956757	96.559319	-227.626587
3373.734617	315.554657	110.644653	-225.639404
3373.737980	322.801880	124.729980	-222.366516
3373.741282	330.282867	138.815308	-217.690857
3373.744614	337.822327	152.491516	-213.132080
3373.747948	344.543549	166.518402	-207.170715
3373.751286	352.901245	180.428406	-200.390991
3373.755953	367.687897	206.904144	-186.130371
3373.758842	374.876678	219.060791	-176.603760
3373.762150	382.357697	231.743408	-167.486328
3373.765464	389.137360	243.724731	-158.193481
3373.768815	396.676788	255.296906	-147.381104
3373.772151	402.930450	266.635315	-136.919373
3373.775527	409.417877	277.798370	-125.230286
3373.778397	415.554657	287.383392	-112.722961
3373.781763	421.983643	296.793091	-100.098816
3373.785071	427.945068	305.969025	-87.357727
3373.788389	432.737579	314.502045	-75.084167
3373.791713	438.465210	322.684387	-61.466431
3373.795036	443.783752	329.931610	-48.433105
3373.798367	448.167145	337.061951	-34.873779
3373.801277	452.959656	343.432495	-22.132690
3373.804607	456.583282	348.634155	-7.579834
3373.807946	460.265350	354.303345	5.862671
3373.811272	463.772064	358.219177	19.188141
3373.814610	467.044983	362.836365	33.273499
3373.817936	470.084167	366.284637	46.891296
3373.821275	472.947998	369.323792	60.509033
3373.824629	475.052002	372.362946	73.776123
3373.827937	477.331390	374.642334	86.517212
3373.831293	478.792542	376.571014	99.375183
3373.834631	480.955017	377.973694	112.233185
3373.837935	481.890137	379.142609	124.331360
3373.841275	483.175903	380.369965	136.312653
3373.844609	484.695496	380.545288	147.592621
3373.847939	485.279968	379.960846	158.931030
3373.851275	485.221497	380.603729	170.795441
3373.854603	485.689087	379.493286	182.484497
3373.857937	485.922852	378.616577	193.063110
3373.861269	486.098206	377.973694	203.232574
3373.864609	485.630615	377.564606	214.161896
3373.867974	485.396851	375.519012	223.454681
3373.871269	485.864410	373.882538	233.565735
3373.874605	484.929260	371.953857	243.267670
3373.877936	484.812378	370.025146	252.852692
3373.881271	483.409698	368.271790	262.320831
3373.884602	484.052612	365.700165	271.847443
3373.887939	482.708374	363.713043	280.029785
3373.891266	481.890137	361.433655	288.562805
3373.894600	481.130341	358.043823	296.511353
3373.898004	480.136780	355.121552	305.453522
3373.901271	479.318542	353.134430	313.635864
3373.904601	478.500305	349.978363	321.642883
3373.907930	477.448273	347.056091	329.065430
3373.912587	474.993591	340.510223	342.566315
3373.915911	474.233795	337.412628	350.573334
3373.918828	473.298645	334.081238	357.236084
3373.922134	471.662201	331.158966	363.606628
3373.925519	470.785522	327.593781	370.269409
3373.928871	469.149048	324.087097	376.698425
3373.932115	468.097015	321.749268	381.958496
3373.935465	466.928101	318.125641	387.393921
3373.938352	465.116302	315.261841	392.361755
3373.941689	464.005859	312.164215	397.797180
3373.945016	462.603149	308.891296	402.998810
3373.948362	461.200470	306.261230	407.440674
3373.951704	459.680908	302.812958	412.408508
3373.955064	458.395081	300.066040	417.551697
3373.957928	457.693756	296.734650	421.759766
3373.961261	456.057281	293.929291	425.675598
3373.964597	454.771484	290.890106	430.526581
3373.967926	453.602570	288.084747	433.565735
3373.971258	452.024536	285.104034	437.189331
3373.974588	451.264771	282.649323	440.579163
