time (s)	magX	magY	magZ
1759.503649	421.866760	459.797180	299.725891
1759.507020	421.165405	462.894806	293.296875
1759.510260	420.230286	466.693756	287.452332
1759.513568	419.587372	470.551147	279.679138
1759.516942	418.827576	474.350098	272.841003
1759.520248	418.067810	477.798401	265.944458
1759.523169	417.424896	481.012848	258.346558
1759.526501	416.781982	485.220917	250.047302
1759.529834	416.489777	488.844543	242.390991
1759.533164	415.087097	491.708344	233.857941
1759.536487	413.976624	495.624176	224.389801
1759.539808	412.690826	498.838684	216.499695
1759.542720	412.457031	503.046783	207.791351
1759.546052	411.346588	506.261261	198.323181
1759.549384	410.177673	509.475739	188.504364
1759.552722	409.184113	512.222656	179.211548
1759.556047	407.372314	515.144897	167.931580
1759.559420	406.437164	518.067200	158.229675
1759.562717	405.326721	520.405029	148.703094
1759.566055	403.398010	522.976624	138.007568
1759.569377	402.229126	525.372864	127.604340
1759.572721	400.183533	527.535339	116.441223
1759.576049	398.605499	529.464050	105.979523
1759.579385	396.501465	531.100525	94.991821
1759.582714	394.280548	533.379883	83.594971
1759.586045	392.351837	534.841003	72.782562
1759.589404	390.423157	535.425476	60.509033
1759.592714	387.500885	536.828125	50.105743
1759.596047	384.870850	537.880188	37.189331
1759.599384	381.948578	537.704834	26.026276
1759.602752	378.500305	537.938599	14.395630
1759.606044	375.519592	537.821716	2.180542
1759.609404	371.486847	537.471069	-10.209839
1759.612711	368.272369	537.704834	-20.963806
1759.616047	364.765625	535.951477	-34.464661
1759.619379	360.908234	535.250122	-46.679749
1759.622716	356.466400	533.146118	-59.187073
1759.626040	351.966095	531.100525	-73.213928
1759.629377	346.121582	528.996460	-86.188782
1759.632714	341.095276	525.957275	-98.520752
1759.636037	336.244293	522.509033	-111.437195
1759.639370	331.451782	518.710083	-125.522522
1759.642712	325.899475	514.911133	-139.081848
1759.646053	319.879608	509.884857	-152.173584
1759.649420	313.684387	504.274109	-166.025146
1759.652715	307.898315	497.845154	-179.935120
1759.656041	301.878448	491.649933	-192.910034
1759.660668	288.494446	477.038605	-221.606689
1759.663557	282.182343	469.206909	-234.932251
1759.666911	275.636475	460.323212	-248.140869
1759.670250	268.564575	451.556396	-262.810669
1759.673620	261.960266	441.503815	-275.317932
1759.676960	254.888367	430.223846	-288.351318
1759.679850	248.167160	418.943909	-301.618347
1759.683153	240.919937	407.254822	-315.411438
1759.686472	234.257172	394.981323	-327.100525
1759.689834	226.367035	382.766235	-339.666321
1759.693128	219.470490	369.966705	-350.478699
1759.696461	212.281708	356.056702	-361.524841
1759.699795	204.976044	342.088257	-373.096985
1759.702698	197.728821	328.002930	-383.734070
1759.706035	190.598480	313.800720	-392.617737
1759.709370	183.701935	298.955566	-401.618347
1759.712698	176.922272	283.701324	-409.625427
1759.716036	169.265930	268.096436	-417.983093
1759.719369	162.427826	253.192871	-424.938049
1759.722702	155.414383	237.120392	-430.957947
1759.726043	148.167160	220.814148	-436.977844
1759.729371	141.212158	205.501465	-441.770325
1759.732738	134.607849	189.195206	-445.861511
1759.736036	127.945068	173.414948	-449.309814
1759.739383	120.931625	157.108704	-452.874939
1759.742703	113.918182	141.153122	-454.452942
1759.746031	108.015213	125.022202	-456.206299
1759.749364	101.586197	108.540619	-456.323181
1759.752695	94.748093	92.409698	-456.089478
1759.756029	89.195801	76.337227	-456.790771
1759.759365	82.182373	60.323200	-453.810059
1759.762701	76.396240	45.010517	-452.115112
1759.766034	70.668640	28.178257	-449.075928
1759.769361	64.473419	12.690235	-445.627747
1759.772702	59.271759	-2.505554	-441.711853
1759.776047	53.836334	-17.935135	-435.750427
1759.779368	48.926941	-32.838692	-431.074890
1759.782699	44.251312	-48.268272	-424.879639
1759.786031	39.283478	-62.528938	-416.755737
1759.789356	35.426056	-77.140266	-408.631775
1759.792698	31.627136	-90.991814	-400.975464
1759.796024	28.237305	-105.310921	-391.799500
1759.799361	24.555237	-119.279366	-382.623657
1759.802695	21.866760	-131.611328	-371.811279
1759.806026	19.996490	-144.410889	-361.641785
1759.809362	17.308014	-156.742859	-350.069580
1759.812689	16.080658	-168.957916	-338.497437
1759.817309	13.509064	-190.933380	-314.184143
1759.820281	12.632385	-201.336639	-300.507874
1759.823556	11.931030	-210.980133	-287.123962
1759.826959	11.463470	-220.331390	-273.038635
1759.830281	11.872589	-229.741089	-259.713074
1759.833551	12.223267	-237.748108	-245.861511
1759.836880	13.041504	-245.170654	-231.133301
1759.840211	13.216827	-252.125641	-216.405029
1759.843111	14.970184	-258.671539	-202.670410
1759.846447	16.782013	-264.574493	-188.877258
1759.849783	18.067780	-270.711273	-174.382874
1759.853125	19.119812	-275.270020	-160.005310
1759.856468	21.106964	-279.302734	-145.627686
1759.859804	22.918762	-284.095276	-131.074829
1759.862717	24.964355	-288.303345	-116.697266
1759.866019	27.711273	-292.336060	-102.085937
1759.869372	29.406189	-294.790771	-87.474609
1759.872684	31.627136	-297.596161	-73.856873
1759.876017	33.848053	-299.057281	-59.888367
1759.879347	35.659851	-300.693756	-46.270630
1759.882689	37.880768	-302.096436	-32.535950
1759.886020	40.277039	-303.440674	-19.385803
1759.889352	43.257751	-304.142029	-5.651123
1759.892687	45.361786	-304.375793	6.856201
1759.896018	48.868500	-304.843353	20.473999
1759.899349	51.264771	-304.843353	33.741089
1759.902677	53.836334	-305.077148	46.131500
1759.906011	56.583282	-303.908234	59.398590
1759.909353	59.797791	-303.732910	71.613678
1759.912704	62.486267	-302.622437	83.653381
1759.916010	65.057861	-301.628876	95.459351
1759.919352	67.863251	-300.459961	107.265320
1759.922676	70.902405	-299.115723	119.597290
1759.926014	74.350677	-297.011688	131.286377
1759.929350	77.623596	-295.901245	143.092346
1759.932675	80.662781	-294.030975	153.787811
1759.936017	84.111053	-291.459381	164.366425
1759.939347	86.916412	-289.180023	175.997040
1759.942679	90.072479	-287.426636	187.160126
1759.946017	93.111633	-285.205719	196.745178
1759.949345	97.261261	-283.101685	207.089996
1759.952678	101.001770	-280.939209	216.733459
1759.956034	103.690247	-278.484528	226.143188
1759.959345	107.489182	-275.912903	235.377533
1759.962678	110.645248	-272.639954	244.319702
1759.966005	114.619522	-270.594391	252.852692
1759.969358	117.366455	-267.730560	261.561035
1759.972677	121.223862	-265.275848	269.042084
1759.976926	127.594406	-260.191101	284.530090
1759.980261	130.808884	-257.561066	292.011078
1759.983608	133.964951	-254.521912	298.673859
1759.986857	137.237885	-252.067200	305.511963
1759.990191	139.458801	-248.560486	312.291626
1759.993534	142.731735	-246.281128	318.603699
1759.996863	145.770889	-243.884857	324.448242
1759.999798	148.400925	-241.547028	329.942139
1760.003116	150.855637	-238.390991	335.669769
1760.006449	154.128571	-235.760956	341.280518
1760.009778	155.531265	-232.838684	345.956146
1760.013126	158.570435	-229.799530	351.450012
1760.016427	160.382233	-227.286377	356.534760
1760.019761	163.012283	-224.247223	360.450623
1760.022676	165.116318	-222.318542	364.950867
1760.026004	167.337234	-219.045593	370.620087
1760.029336	169.675049	-216.298645	374.594360
1760.032674	171.779068	-214.311493	378.919312
1760.036002	173.649323	-211.272369	381.900024
1760.039338	175.052017	-209.051422	385.289856
1760.042695	177.389832	-205.953827	388.796570
1760.046002	179.669205	-203.557556	392.829315
1760.049329	181.013443	-200.927521	396.160706
1760.052662	182.708359	-198.589722	400.368774
1760.056003	184.520157	-196.251892	404.050842
1760.059335	186.565765	-193.797180	407.674438
1760.062701	188.552902	-190.758026	410.596710
1760.066008	190.715378	-188.537109	413.752747
1760.069336	191.475174	-186.491516	417.376373
1760.072666	193.812988	-184.971924	420.707764
1760.076000	195.274124	-182.225006	423.104004
1760.079329	196.910583	-179.536530	425.850952
1760.082666	198.371704	-177.841614	428.948547
1760.086030	200.125076	-175.912903	431.987701
1760.089334	201.703094	-173.224426	434.559296
1760.092665	203.456467	-171.295746	437.715332
1760.095993	205.385162	-169.425476	439.527161
1760.099336	206.787857	-167.555237	442.449432
1760.102664	208.015198	-165.860321	444.144348
1760.105998	209.885452	-164.048523	447.066620
1760.109332	211.521912	-162.762726	448.995300
1760.112657	212.398605	-160.541779	451.508453
1760.115996	213.742844	-158.671539	453.437164
1760.119332	215.379318	-157.268829	454.606079
1760.122662	216.898895	-155.866150	457.002319
1760.125991	218.243134	-154.054352	458.112793
1760.129344	219.353592	-153.177673	459.398560
1760.132705	220.288727	-150.956757	461.327271
1760.137259	222.392761	-149.261841	464.483337
1760.140187	223.853882	-147.566925	465.827576
1760.143517	224.672119	-146.748688	466.645813
1760.146881	225.957916	-145.404449	467.873169
1760.150191	226.659271	-143.884857	469.860291
1760.153578	227.126831	-143.241974	471.029205
1760.156908	227.769714	-142.014618	471.029205
1760.160170	228.821747	-140.962585	472.373444
1760.163081	229.055527	-139.969025	472.957886
1760.166418	230.458221	-138.741669	474.126801
1760.169744	230.399765	-138.332581	473.893036
1760.173094	230.867340	-137.046753	474.477478
1760.176414	231.393341	-136.228516	475.880157
1760.179761	232.620697	-135.293396	476.698395
1760.182651	232.445358	-134.650513	477.575073
1760.185990	232.503799	-133.949158	477.867310
1760.189319	233.205139	-133.014008	477.984192
1760.192653	233.614258	-132.721802	478.802429
1760.195995	233.789612	-132.195801	480.205139
1760.199330	234.432495	-131.552887	480.088226
1760.202655	234.432495	-131.202240	480.789581
1760.205982	234.900055	-129.741089	480.789581
1760.209354	235.309174	-129.507324	482.016937
1760.212651	235.309174	-129.215088	482.192261
1760.216005	236.127411	-128.747528	482.776733
1760.219322	236.068970	-127.637062	482.835175
1760.222649	236.594971	-127.111046	483.010498
1760.225986	236.887207	-126.760368	483.711853
1760.229321	237.237885	-126.409706	484.354736
1760.232648	237.997665	-126.117485	484.588531
1760.235983	237.880768	-125.708351	484.705414
1760.239314	238.056122	-125.474586	485.172974
1760.242644	238.582123	-125.182350	484.997650
1760.245979	239.225021	-124.948586	485.289856
1760.249313	239.225021	-125.299248	485.932770
1760.252671	239.166565	-124.948586	486.166565
1760.255979	239.634125	-124.597893	486.634125
1760.259355	240.218597	-124.364113	486.926331
1760.262646	239.926361	-124.773232	487.043243
1760.265979	239.634125	-124.364113	486.926331
1760.269306	239.634125	-124.831688	486.926331
1760.272651	239.751022	-125.240791	486.984772
1760.275980	239.984802	-125.299248	486.751007
1760.279311	240.569260	-125.416145	487.218567
1760.282649	240.510803	-126.000587	486.517212
1760.285981	240.218597	-126.234383	485.815887
1760.289305	239.751022	-126.234383	485.815887
1760.292643	239.458801	-126.351265	485.523651
1760.297324	239.049683	-127.812401	484.062531
1760.300234	239.166565	-128.163055	483.419617
1760.303580	238.289886	-128.805969	482.835175
1760.306912	238.173004	-129.390411	482.075378
1760.310160	238.056122	-129.624207	482.367615
1760.313500	237.296326	-130.676208	481.432495
1760.316833	236.536530	-130.851532	480.380463
1760.320191	235.718292	-132.020447	480.029785
1760.323070	234.958511	-132.312683	479.679108
1760.326425	234.783173	-133.306244	478.685547
1760.329739	233.964935	-133.715363	478.042664
1760.333088	233.555817	-134.825836	476.873749
1760.336398	232.270020	-135.702515	476.523071
1760.339736	232.270020	-136.637665	475.237274
1760.342633	231.276459	-137.748108	475.003479
1760.345999	230.516663	-138.449432	474.126801
1760.349302	229.698425	-139.852142	472.665680
1760.352640	228.587967	-140.553497	472.198120
1760.355966	228.587967	-141.839264	472.081207
1760.359300	227.243713	-142.189941	470.386292
1760.362638	227.126831	-142.715973	469.158936
1760.365975	226.542389	-144.410889	467.990051
1760.369302	225.841034	-145.638245	466.821136
1760.372635	225.373474	-146.748688	465.184662
1760.375965	224.789017	-147.683807	464.775543
1760.379303	223.853882	-149.320282	463.606628
1760.382638	222.977203	-151.132080	461.911743
1760.385966	222.451202	-152.476349	460.742828
1760.389312	221.574524	-153.820587	459.223236
1760.392631	220.814728	-155.223267	458.054321
1760.395970	220.113388	-157.035065	456.300964
1760.399296	219.412048	-157.970215	455.365845
1760.402637	218.360016	-159.957336	453.320251
1760.405965	217.366455	-161.301575	451.391571
1760.409300	216.957336	-163.113403	449.930420
1760.412634	215.671539	-164.516083	447.475708
1760.415966	214.561081	-166.386322	445.605469
1760.419292	213.684387	-168.548798	443.501434
1760.422629	211.697266	-170.126831	441.514282
1760.425963	211.112793	-172.464630	438.650482
1760.429301	210.060791	-175.036255	436.604889
1760.432642	208.716537	-176.555817	433.156616
1760.435967	207.255417	-178.075409	430.818787
1760.439298	205.443604	-180.939209	428.480988
1760.442625	204.099365	-183.277039	425.792511
1760.445964	202.930450	-184.562836	422.928680
1760.449296	201.293991	-187.017548	420.064850
1760.452626	199.073059	-188.829315	415.915222
1760.455968	197.436584	-191.634705	413.343628
1760.460566	193.754532	-196.310333	406.914642
1760.463511	191.650497	-198.122131	401.888336
1760.466826	189.955582	-200.693756	398.907654
1760.470205	187.910004	-203.031555	394.056671
1760.473486	186.098190	-205.544708	391.134399
1760.476899	184.929276	-208.057861	386.634094
1760.480239	182.299240	-210.337250	382.659821
1760.483055	180.545883	-213.610168	379.036224
1760.486381	178.266510	-215.714203	374.419037
1760.489724	176.454697	-218.168915	369.626526
1760.493048	174.000000	-221.149628	365.593811
1760.496374	172.071304	-223.954987	361.035034
1760.499721	169.324371	-226.585022	356.651672
1760.503046	167.395676	-229.098175	351.625366
1760.505954	165.291641	-232.078888	345.488586
1760.509291	163.655182	-233.890717	341.222076
1760.512640	161.784927	-237.163635	335.961975
1760.515955	159.096436	-240.261261	330.701904
1760.519290	156.817062	-243.417297	324.857361
1760.522634	155.414383	-245.404449	319.947968
1760.525956	153.602585	-248.735809	313.811188
1760.529287	151.323196	-251.658081	307.674438
1760.532617	148.985382	-254.346588	300.894775
1760.535956	146.706009	-257.268829	294.407349
1760.539288	143.959091	-260.892456	288.329041
1760.542619	141.270615	-263.580933	282.016937
1760.545956	138.874344	-265.977203	274.945038
1760.549287	137.062531	-269.717682	266.821136
1760.552614	134.841614	-272.698425	258.638794
1760.555989	131.860901	-275.445343	251.099335
1760.559287	129.406189	-278.075378	242.274078
1760.562627	126.951477	-280.530090	233.682617
1760.565951	124.087677	-283.978363	224.214478
1760.569281	121.632965	-287.017548	215.213867
1760.572609	118.769150	-289.589111	205.921082
1760.575952	115.671539	-291.634705	196.511383
1760.579286	112.749268	-294.556976	185.114532
1760.582614	109.593231	-296.836365	175.938629
1760.585944	107.255417	-299.700165	164.307983
1760.589331	103.748688	-301.453522	153.846283
1760.592616	101.177094	-303.265350	143.267670
1760.595947	98.137924	-304.609589	131.578613
1760.599319	94.806549	-306.538269	119.714203
1760.602614	91.475159	-308.350098	108.375763
1760.605969	88.611359	-310.337250	97.212738
1760.609282	85.338409	-311.038574	84.588501
1760.612609	82.649933	-311.856812	71.672089
1760.615948	79.552307	-312.850372	59.457001
1760.620620	72.889557	-314.136169	32.513702
1760.623520	70.259491	-314.545288	19.597290
1760.626860	67.863251	-314.662170	6.096375
1760.630196	65.350067	-313.902374	-6.878418
1760.633454	62.895386	-313.960846	-20.320923
1760.636816	60.323792	-313.201050	-33.821716
1760.640130	58.453552	-311.856812	-48.023987
1760.643075	56.349487	-311.739929	-61.875549
1760.646360	54.829926	-310.045013	-77.012878
1760.649706	52.258331	-308.759186	-89.812378
1760.653051	50.738739	-306.888947	-104.423706
1760.656389	49.394501	-304.258911	-117.807739
1760.659716	47.933380	-302.213318	-133.704895
1760.663037	47.056702	-299.466400	-148.374695
1760.665935	45.595551	-296.310333	-161.992432
1760.669274	45.244873	-293.037384	-177.129761
1760.672608	44.543549	-288.829315	-190.981323
1760.675939	43.900635	-283.978363	-205.242004
1760.679270	43.608429	-279.828735	-220.203979
1760.682608	43.491547	-274.101105	-234.873779
1760.685971	44.426666	-269.308594	-250.420227
1760.689273	43.959106	-263.054932	-263.804199
1760.692610	44.485107	-256.333710	-278.473999
1760.695936	45.420227	-249.320282	-291.974915
1760.699269	45.654022	-242.482178	-305.943359
1760.702599	46.589142	-233.598480	-319.619507
1760.705933	47.348938	-225.533020	-333.471069
1760.709269	49.336060	-216.766205	-345.393921
1760.712603	50.329651	-206.362946	-358.135010
1760.715934	52.141418	-196.953217	-369.239685
1760.719305	53.310364	-185.848633	-381.162537
1760.722604	55.589722	-174.860901	-392.325562
1760.725936	57.693756	-163.230286	-403.897705
1760.729301	60.031555	-150.606079	-414.008789
1760.732602	62.369385	-138.507904	-422.775635
1760.735949	65.057861	-125.240791	-431.600830
1760.739264	68.447693	-112.207481	-439.900085
1760.742605	71.486847	-98.063713	-446.971985
1760.745928	75.168884	-83.919930	-453.517883
1760.749269	78.967865	-69.191704	-460.940430
1760.752600	82.591461	-54.463478	-466.726440
1760.755926	86.682648	-39.443016	-469.531860
1760.759263	90.832245	-24.071892	-475.025696
1760.762595	95.332550	-8.408539	-477.772705
1760.765933	100.066635	6.670364	-481.279419
1760.769263	104.917603	22.041496	-482.740540
1760.772610	109.593231	38.230854	-484.318481
1760.775924	115.028641	53.543537	-485.838074
1760.780186	126.016357	86.448273	-484.903015
1760.783448	132.211563	101.527176	-483.792542
1760.786769	138.173004	117.365860	-482.857361
1760.790105	144.543549	132.912323	-479.993591
1760.793453	150.972534	148.867920	-477.655762
1760.796807	157.226181	163.537689	-474.499756
1760.800171	164.005844	178.382812	-471.811279
1760.803041	170.960846	193.578613	-466.375793
1760.806364	178.091187	209.300415	-461.408020
1760.809684	185.104630	223.619537	-456.615417
1760.813021	192.118057	238.756866	-451.296936
1760.816364	199.189957	252.725311	-444.341919
1760.819684	206.729401	267.161316	-437.328491
1760.823017	213.275284	281.246643	-430.665771
1760.825922	220.054932	295.156647	-422.074280
1760.829252	226.834595	309.008179	-413.716553
1760.832588	234.023376	321.223236	-405.417297
1760.835928	241.212158	334.841034	-395.189331
1760.839259	247.874939	347.640564	-385.428955
1760.842586	255.122162	359.855652	-374.382874
1760.845922	261.551147	371.895386	-363.921143
1760.849253	267.687897	383.058441	-352.641174
1760.852594	273.824646	395.215088	-341.478149
1760.855925	280.078308	406.144348	-329.672119
1760.859263	285.572174	417.307434	-317.632385
1760.862590	291.884277	427.067810	-304.599060
1760.865926	297.144348	437.237274	-291.390503
1760.869259	302.521332	446.530090	-279.467529
1760.872586	307.606079	455.296906	-265.499146
1760.875921	312.983063	463.479248	-253.459412
1760.879254	317.600250	471.603149	-239.841614
1760.882581	322.392761	478.733521	-225.580933
1760.885912	327.302155	486.331390	-214.301025
1760.889250	331.451782	492.994141	-200.975464
1760.892585	335.718292	499.306274	-187.591492
1760.895914	339.926361	504.741699	-175.317993
1760.899252	344.251312	509.709534	-162.167725
1760.902581	348.167145	514.969604	-149.660461
1760.905919	352.959686	518.943909	-135.984253
1760.909249	357.167755	522.509033	-123.593811
1760.912585	360.499115	526.366455	-110.735840
1760.915945	363.947388	529.756287	-99.397461
1760.919244	367.278778	531.918762	-86.364136
1760.922580	370.843964	534.724121	-74.499695
1760.925916	373.941559	536.126831	-61.524902
