time (s)	magX	magY	magZ
4204.149113	305.034485	373.414978	319.597290
4204.152032	302.404449	375.986572	313.168304
4204.155340	300.183533	377.447693	307.616028
4204.158667	297.495026	379.142609	300.836334
4204.161981	294.455872	381.480438	293.939789
4204.165346	291.416718	383.058441	286.984802
4204.168661	288.026886	384.461151	280.263580
4204.171598	284.929291	386.039154	273.893036
4204.174902	281.948578	386.623627	265.827576
4204.178237	278.032745	388.026306	258.054352
4204.181563	274.467560	389.487427	252.151367
4204.184895	270.259521	389.428986	243.968994
4204.188231	266.694336	390.422546	236.663330
4204.191563	262.544708	391.007019	228.480988
4204.194891	258.979553	390.071899	220.123291
4204.198225	254.362366	389.838135	212.642303
4204.201557	250.388092	390.130341	204.576843
4204.204892	246.121567	389.136780	195.284027
4204.208229	241.153717	387.734070	187.218567
4204.211599	236.127411	386.389832	179.269989
4204.214938	231.685577	384.870270	169.392731
4204.218227	225.782593	382.883118	161.327271
4204.221564	221.106964	380.662201	152.443573
4204.224891	216.197556	378.032166	143.676758
4204.228222	210.645233	374.642334	134.091736
4204.231559	205.502045	371.252472	124.156036
4204.234891	200.300415	367.687317	116.032104
4204.238226	195.215668	363.187012	106.388641
4204.241557	189.780243	358.452972	97.504944
4204.244896	184.403275	353.017548	88.095276
4204.248223	178.500305	347.523651	79.796021
4204.251553	173.298660	341.503815	71.204559
4204.254888	167.454132	335.425507	62.788422
4204.258240	161.668030	328.178253	53.320251
4204.261554	156.115723	320.814148	44.261261
4204.264897	150.446518	313.917572	36.429535
4204.268221	144.251328	305.150787	27.604340
4204.271556	139.049683	296.442413	20.941528
4204.274888	133.731155	287.792511	14.337219
4204.278279	127.886612	277.856812	7.732910
4204.281559	123.269440	268.856232	1.070129
4204.284891	117.307999	259.095856	-5.417297
4204.289488	106.904755	238.347748	-15.937500
4204.292836	102.521332	227.593811	-21.022217
4204.295792	97.027466	216.956757	-24.821228
4204.299092	92.176514	205.150787	-27.918762
4204.302531	87.033325	193.695496	-32.185303
4204.305805	82.474579	182.298645	-34.523132
4204.309086	77.740509	171.018707	-36.451782
4204.312406	73.707764	159.504974	-38.380493
4204.315313	69.616608	148.283463	-39.724731
4204.318642	65.700775	136.477493	-39.432495
4204.321974	61.668030	124.379303	-39.607849
4204.325325	58.278198	112.164230	-39.607849
4204.328638	55.180603	100.592049	-37.912964
4204.331996	51.790771	88.727638	-35.633606
4204.334877	49.686737	76.746346	-33.412659
4204.338217	46.764465	64.531265	-30.490356
4204.341601	44.426666	53.017532	-27.918762
4204.344902	42.965515	41.620686	-24.470459
4204.348211	40.803040	30.983631	-19.853333
4204.351549	39.341919	19.528343	-15.762146
4204.354884	38.289886	8.189941	-10.151428
4204.358212	37.530090	-2.388664	-4.248413
4204.361544	36.828766	-13.025719	0.836304
4204.364884	37.004089	-23.370544	7.674438
4204.368214	36.536530	-32.838692	14.395630
4204.371544	37.763885	-42.248390	21.584442
4204.374876	38.348358	-52.476334	28.890106
4204.378210	38.640564	-61.652260	35.611328
4204.381544	39.984802	-69.600822	44.202789
4204.384883	41.913513	-78.659859	52.735779
4204.388216	43.491547	-86.783760	62.437744
4204.391539	45.770874	-94.381660	71.204559
4204.394873	47.874939	-101.511986	79.620667
4204.398208	50.680298	-108.291649	88.562805
4204.401540	53.076569	-114.779076	98.673859
4204.404935	55.531281	-120.506721	109.369354
4204.408210	59.271759	-125.533012	118.837494
4204.411535	62.077148	-130.208649	128.305664
4204.414875	65.408539	-134.708954	138.416718
4204.418233	68.447693	-139.209229	148.644623
4204.421536	72.129761	-142.774414	158.288116
4204.424867	75.753357	-145.930450	169.217407
4204.428208	78.850952	-148.969604	179.153107
4204.431543	82.649933	-152.067230	188.504364
4204.434872	86.390411	-153.879028	198.556946
4204.438210	89.604919	-155.632385	208.609558
4204.441539	93.637634	-156.976624	217.727051
4204.444876	97.787262	-158.613098	226.727600
4204.449138	105.151367	-159.665131	246.248383
4204.452486	108.658096	-160.950897	255.190491
4204.455779	112.164810	-160.541779	263.957306
4204.459057	116.080673	-160.658691	272.665680
4204.462421	119.470474	-160.249542	281.315582
4204.465713	122.977219	-160.424896	288.971924
4204.469070	127.185272	-159.080658	297.797180
4204.472414	131.334900	-158.379303	306.213318
4204.475325	134.958511	-157.911743	313.928101
4204.478648	138.874344	-156.509064	321.818237
4204.481963	142.439514	-155.457062	328.773224
4204.485299	146.530685	-153.411469	335.669769
4204.488626	150.329636	-152.593231	342.916992
4204.491995	154.070145	-150.956757	350.631775
4204.494865	158.336639	-149.437164	358.229675
4204.498200	162.661606	-147.508484	364.132660
4204.501529	166.285217	-145.462891	370.561646
4204.504873	169.616608	-143.475769	377.107544
4204.508199	173.181763	-141.722382	384.179413
4204.511529	176.454697	-139.735260	389.439484
4204.514868	180.019867	-137.923431	394.699585
4204.518193	183.701935	-135.760956	400.777893
4204.521526	187.793106	-133.540039	405.745728
4204.524858	190.832260	-130.968445	411.531830
4204.528191	193.988312	-129.682648	416.499695
4204.531535	197.670364	-126.994164	421.818237
4204.534858	200.709518	-124.773232	427.428955
4204.538194	203.748688	-122.318535	430.994141
4204.541522	207.021637	-120.214500	434.909973
4204.544859	210.177673	-117.935127	439.118042
4204.548216	212.749268	-115.363533	443.968994
4204.551523	215.379318	-112.908821	447.125061
4204.554860	218.476913	-110.804802	450.748657
4204.558198	221.223846	-108.992989	454.547607
4204.561526	223.678558	-106.362953	458.112793
4204.564860	226.133255	-104.317360	461.736389
4204.568195	228.178848	-101.804207	464.132660
4204.571521	231.568665	-100.167732	467.171814
4204.574860	234.198715	-97.537712	470.561646
4204.578213	236.361206	-95.316780	473.250122
4204.581523	238.173004	-92.920509	476.990631
4204.584860	239.926361	-91.400948	478.743988
4204.588191	242.381073	-88.712456	481.315582
4204.592855	245.770905	-85.088829	486.575684
4204.595774	247.641144	-82.751015	487.978363
4204.599035	249.160721	-80.822334	489.907043
4204.602394	251.030975	-78.426079	492.069519
4204.605723	252.842789	-76.614265	494.173553
4204.609120	254.362366	-75.503807	496.219147
4204.612480	255.765045	-73.049110	497.855621
4204.615294	257.050842	-71.529518	500.018097
4204.618609	258.979553	-69.425484	501.596130
4204.621982	259.914673	-68.198128	502.765045
4204.625285	261.843384	-65.743431	504.050842
4204.628610	263.713623	-64.691414	504.927521
4204.631938	264.590302	-63.288719	507.323761
4204.634853	265.934540	-61.593803	509.720032
4204.638187	267.454102	-60.249565	510.655151
4204.641516	269.149048	-58.087090	511.648712
4204.644850	269.850372	-56.509071	513.518982
4204.648184	271.486847	-54.697258	514.980103
4204.651516	272.772644	-53.469902	516.441223
4204.654856	274.116882	-52.359451	516.499695
4204.658182	275.578033	-50.664528	518.019287
4204.661517	277.039154	-49.086494	518.837524
4204.664855	278.091187	-47.917595	519.480408
4204.668185	279.084747	-46.573349	520.824646
4204.671510	280.662781	-45.638229	522.402649
4204.674849	281.130341	-43.125076	522.636475
4204.678192	282.007019	-42.365288	523.863831
4204.681518	283.059021	-41.021049	524.272949
4204.684845	284.111053	-39.910576	525.734070
4204.688182	284.987732	-38.624786	526.610718
4204.691508	285.747528	-37.981888	527.136719
4204.694851	286.799530	-36.871422	528.013428
4204.698182	287.208649	-35.819412	529.065430
4204.701511	288.552887	-34.825836	530.292786
4204.704847	289.195801	-33.832260	530.877258
4204.708193	290.247803	-32.663353	531.227905
4204.711510	290.773804	-31.611343	531.987732
4204.714841	291.592041	-31.377563	532.279907
4204.718174	292.001160	-29.974876	532.981262
4204.721513	292.585632	-29.273529	532.630615
4204.724842	293.520752	-28.046181	534.091736
4204.728174	294.222107	-27.929283	534.734619
4204.731576	294.046753	-27.111053	534.793091
4204.734842	294.864990	-26.059029	535.085327
4204.739489	295.332550	-24.773239	536.020447
4204.742796	296.209229	-24.247231	536.254211
4204.745737	296.501465	-23.428993	536.546448
4204.749038	297.144348	-23.195213	537.189331
4204.752464	297.553467	-23.019875	537.189331
4204.755754	297.728821	-22.260086	538.066040
4204.759031	297.845703	-21.441849	538.533569
4204.762367	298.313263	-20.915840	537.306213
4204.765272	299.073059	-20.448280	537.306213
4204.768593	299.423737	-20.214500	538.533569
4204.771933	299.365295	-19.805382	538.416687
4204.775266	299.657532	-19.396263	538.942688
4204.778611	300.008179	-18.578026	539.176514
4204.781945	300.592651	-18.694916	539.059570
4204.785279	301.060211	-17.759796	540.228516
4204.788218	301.060211	-17.526009	539.702515
4204.791500	301.703094	-17.000008	540.871399
4204.794839	301.761536	-17.175339	539.819397
4204.798169	301.936890	-16.240211	540.228516
4204.801496	302.638214	-16.181770	540.754517
4204.804833	303.105774	-15.772652	540.345398
4204.808166	303.514893	-15.655762	540.286926
4204.811501	303.748688	-15.889542	540.929871
4204.814833	303.690247	-15.655762	541.046753
4204.818166	304.099365	-15.421982	540.871399
4204.821500	304.683807	-15.188194	540.871399
4204.824830	304.800720	-15.012856	540.871399
4204.828171	305.092926	-14.895966	541.455872
4204.831517	304.742249	-14.603745	540.812927
4204.834831	305.443604	-14.954414	541.280518
4204.838168	305.735840	-14.428406	541.222046
4204.841491	305.560486	-14.603745	541.864990
4204.844832	304.976044	-14.603745	541.864990
4204.848160	305.151367	-14.545296	541.923401
4204.851498	305.385162	-14.779076	541.689636
4204.854832	305.326721	-14.895966	541.514282
4204.858155	305.852722	-15.597313	540.637634
4204.861498	305.443604	-15.538872	541.455872
4204.864825	305.092926	-15.538872	540.929871
4204.868161	305.326721	-15.714211	540.929871
4204.871500	305.326721	-16.064880	540.871399
4204.874852	305.209808	-16.357101	542.215637
4204.878163	305.209808	-16.532440	541.338989
4204.881498	305.268250	-16.707779	540.871399
4204.884830	304.859161	-17.642899	541.455872
4204.888157	304.976044	-17.818237	540.929871
4204.891488	304.976044	-18.110466	540.462280
4204.894821	305.092926	-18.461136	540.228516
4204.898157	304.099365	-17.818237	540.053162
4204.902404	303.807129	-19.454712	539.527161
4204.905751	304.216248	-19.922272	539.293396
4204.909007	304.274689	-19.980713	539.468689
4204.912358	303.456451	-20.682060	539.118042
4204.915666	303.398010	-21.149620	538.358276
4204.919064	303.807129	-21.792526	538.650452
4204.922360	303.748688	-22.435417	538.007568
4204.925295	303.339569	-22.435417	537.890686
4204.928599	303.398010	-22.961433	537.656921
4204.931932	302.930450	-23.838104	537.306213
4204.935246	302.872009	-24.130341	537.540039
4204.938585	302.638214	-25.182350	536.663330
4204.941905	303.047333	-25.825249	537.014038
4204.944822	302.346008	-26.701935	536.604919
4204.948153	302.521332	-26.994156	535.494446
4204.951489	301.586212	-27.812393	535.319092
4204.954818	301.820007	-28.630623	535.026855
4204.958155	301.936890	-29.565750	534.734619
4204.961508	301.703094	-30.559326	533.916382
4204.964820	301.235535	-31.260666	533.448853
4204.968151	300.884857	-31.786682	533.682617
4204.971491	300.709534	-33.130920	533.857971
4204.974820	300.241974	-33.715378	532.747498
4204.978149	299.540619	-35.001167	532.572144
4204.981479	299.014618	-36.286972	531.286377
4204.984816	298.313263	-37.046768	530.818787
4204.988150	297.962585	-38.215675	530.585022
4204.991487	298.137939	-39.326134	529.357666
4204.994814	297.261261	-40.553482	528.714783
4204.998149	296.559906	-42.073059	528.422546
4205.001483	295.624786	-43.125076	526.610718
4205.004849	294.981873	-44.878433	526.260071
4205.008144	294.923431	-46.164238	525.500244
4205.011483	294.338989	-47.683807	524.565125
4205.014812	293.871429	-48.268272	523.337769
4205.018144	292.702515	-49.963188	522.110474
4205.021476	292.760956	-51.365875	522.052002
4205.024807	291.884277	-53.703682	520.707764
4205.028150	290.656921	-55.749275	519.480408
4205.031478	289.955566	-56.742851	518.369934
4205.034813	289.078918	-58.671547	516.558105
4205.038148	288.494446	-60.015785	515.389221
4205.041474	288.202209	-62.178261	514.746338
4205.044816	287.325562	-64.048515	513.402100
4205.048160	286.507324	-65.860313	511.590271
4205.051478	285.689087	-67.379906	510.596710
4205.054816	284.929291	-68.899483	509.369354
4205.059419	283.468140	-72.464638	506.154846
4205.062776	283.117493	-75.036232	504.226166
4205.065675	281.247223	-77.432503	503.466370
4205.069012	280.721222	-78.776741	501.829895
4205.072402	279.844543	-81.231453	499.492096
4205.075741	279.318542	-83.861488	497.621826
4205.079061	278.324951	-85.907082	495.985382
4205.082325	277.974304	-88.478676	493.296875
4205.085228	277.506714	-90.758034	491.192841
4205.088573	275.344238	-92.628288	489.848602
4205.091931	274.935120	-95.667442	487.627686
4205.095228	274.000000	-97.829918	485.815887
4205.098564	272.889526	-100.752205	483.244293
4205.101926	271.895966	-102.914680	480.614258
4205.104802	270.551727	-105.953835	477.633545
4205.108133	268.915253	-108.233192	475.704834
4205.111468	268.155457	-110.980125	472.782562
4205.114822	267.103455	-113.902397	469.275848
4205.118138	265.350098	-116.415550	464.833984
4205.121473	264.473419	-119.863838	462.320862
4205.124805	262.953827	-122.786095	458.989471
4205.128132	261.317352	-125.766808	454.781403
4205.131469	260.090027	-128.747528	450.456421
4205.134832	258.745758	-131.494446	447.358826
4205.138133	257.226196	-135.001160	442.741638
4205.141471	255.180603	-138.274109	438.124481
4205.144801	253.544128	-141.137939	433.215057
4205.148130	252.433670	-144.060181	428.948547
4205.151462	250.037415	-147.800690	423.688477
4205.154795	248.459381	-150.722961	418.136169
4205.158131	246.881348	-153.879028	413.752747
4205.161465	245.420227	-156.450623	406.388641
4205.164798	243.666870	-160.834015	401.245453
4205.168135	241.971954	-163.873169	395.576233
4205.171463	240.218597	-166.620087	389.381042
4205.174792	238.173004	-170.009918	383.828735
4205.178148	236.594971	-173.165985	377.516632
4205.181462	234.666275	-176.789612	369.626526
4205.184802	232.971359	-180.062531	363.022217
4205.188128	231.276459	-183.277039	355.424316
4205.191460	228.704849	-186.608398	348.410858
4205.194797	227.243713	-189.939789	340.053162
4205.198134	225.548798	-193.212738	332.104614
4205.201460	223.561661	-195.901245	323.454681
4205.204792	221.808304	-199.232605	315.447693
4205.208122	219.938049	-202.271790	307.089966
4205.211458	219.061371	-204.726471	297.855621
4205.214790	217.015778	-208.174744	288.913483
4205.219485	214.035080	-213.376373	269.568085
4205.222411	212.866165	-216.590881	259.983032
4205.225726	210.820572	-218.461121	249.170654
4205.228978	209.827011	-220.506714	238.241364
4205.232313	208.307419	-222.961426	228.539429
4205.235640	206.904739	-224.305664	216.675018
4205.238990	205.326721	-227.052582	205.453522
4205.241890	204.625366	-228.572174	193.296875
4205.245228	202.462891	-229.857971	181.374023
4205.248576	201.060196	-230.208649	168.399139
4205.251914	199.540619	-231.611328	156.593201
4205.255208	198.137924	-231.786652	143.735229
4205.258547	197.261246	-232.020447	130.760345
4205.261880	195.624786	-231.611328	117.142578
4205.264809	194.864990	-230.793091	102.823486
4205.268127	194.338974	-230.500854	89.497925
4205.271457	193.228516	-229.098175	75.997040
4205.274787	192.351837	-226.877258	62.203979
4205.278126	190.949158	-224.773224	47.475708
4205.281453	190.773819	-222.084747	32.513702
4205.284788	189.721802	-218.928711	19.071289
4205.288117	189.254242	-214.603729	4.810608
4205.291455	189.020462	-211.330811	-9.157837
4205.294794	189.137360	-206.947388	-23.009338
4205.298116	189.254242	-202.096436	-36.744019
4205.301450	189.604919	-196.485657	-50.887817
4205.304798	190.189362	-190.232025	-63.628906
4205.308115	190.949158	-183.803040	-77.480408
4205.311451	190.832260	-176.497375	-89.870850
4205.314783	192.410294	-169.367035	-102.728821
4205.318115	194.338974	-161.593811	-114.534790
4205.321445	195.917007	-152.885437	-126.866760
4205.324786	198.313278	-143.241974	-138.614258
4205.328119	199.657516	-135.059631	-148.608398
4205.331449	202.229111	-125.240791	-158.485718
4205.334787	204.508469	-114.662193	-168.070740
4205.338126	207.606079	-103.616020	-177.129761
4205.341445	210.060791	-92.336067	-185.019897
4205.344783	212.866165	-81.114555	-192.267090
4205.348113	216.080658	-69.191704	-200.040344
4205.351447	219.762711	-57.327293	-205.534180
4205.354778	222.977203	-44.586220	-210.911194
4205.358115	226.367035	-31.202217	-216.521973
4205.361443	231.159561	-17.759796	-220.671570
4205.364776	235.367615	-4.492699	-224.470459
4205.368141	238.874344	8.774399	-226.925171
4205.371440	243.374634	22.567501	-228.503235
4205.374773	247.699600	36.828167	-229.789001
4205.379400	256.115723	64.765045	-229.438354
4205.382304	260.323792	79.960838	-228.444763
4205.385661	264.999420	94.572174	-225.931641
4205.388973	268.681458	108.832840	-223.944458
4205.392371	272.947998	122.567505	-220.437805
4205.395699	277.272949	137.471069	-216.171265
4205.398958	281.948578	151.556396	-210.794250
4205.402291	286.039734	165.583282	-205.417297
4205.405208	290.598480	179.317932	-198.520752
4205.408532	294.514313	193.403259	-192.091736
4205.411890	298.196381	207.196381	-185.662781
4205.415197	302.755127	220.405029	-177.655762
4205.418529	306.086487	233.438324	-168.362976
4205.421877	310.469910	246.004089	-159.011719
4205.424769	313.918182	258.336060	-149.485107
4205.428105	317.658691	269.849792	-139.666260
4205.431480	321.399170	281.071289	-128.853882
4205.434772	325.315033	291.474579	-117.749268
4205.438109	328.997070	302.170074	-107.287537
4205.441435	332.270020	311.638214	-95.656921
4205.444772	335.835175	320.288116	-84.376953
4205.448103	339.166565	328.938049	-72.454163
4205.451443	342.497955	337.412628	-61.232605
4205.454795	345.478668	344.484528	-49.017517
4205.458098	349.336060	351.381073	-37.386902
4205.461432	352.316772	357.926941	-24.879639
4205.464770	355.355927	364.005249	-13.833435
4205.468103	358.278198	369.499146	-0.916992
4205.471434	360.557556	374.817657	10.888916
4205.474763	363.772064	379.551727	22.928711
4205.478105	365.700775	383.233795	34.267090
4205.481431	368.097015	386.974274	45.605469
4205.484770	370.142609	390.422546	57.236084
4205.488101	372.363525	392.935699	68.165375
4205.491461	374.642914	395.098175	79.796021
4205.494780	376.454712	397.494446	91.309723
4205.498120	378.266510	399.130920	102.881958
4205.501428	379.902985	400.124512	113.635864
4205.504762	381.539459	401.234955	124.214478
4205.508101	383.292816	401.936279	134.851532
4205.511431	384.812378	402.696075	145.196350
4205.514762	385.922852	402.812988	155.482727
4205.518097	386.331970	402.871429	165.535339
4205.521435	387.617767	402.403839	175.880188
4205.524763	387.968445	402.696075	186.049652
4205.528097	388.552887	401.644073	195.868469
4205.531429	389.078918	401.118073	205.219727
4205.536123	390.014038	398.897156	224.272919
4205.539019	390.598480	397.669800	233.799530
4205.542358	390.832275	395.799530	242.624756
4205.545616	390.890717	393.870850	250.339539
4205.548943	390.306274	391.883698	259.106354
4205.552275	391.124481	390.071899	267.405579
4205.555627	391.066040	388.026306	274.945038
4205.558973	391.241394	385.279358	283.068970
4205.561866	391.007599	382.590881	290.959045
4205.565210	390.598480	380.837524	298.147858
4205.568535	391.182922	378.908813	305.044403
4205.571873	391.124481	376.045013	312.700745
4205.575183	391.066040	372.655182	319.831055
4205.578132	391.416718	369.791351	326.026276
4205.581422	390.540039	367.687317	332.396820
4205.584779	390.540039	364.122162	338.299805
4205.588094	390.072479	361.083008	344.378113
