time (s)	magX	magY	magZ
2066.908642	473.941559	461.375244	194.641113
2066.911983	472.012848	463.713043	184.530090
2066.915320	470.785522	466.869080	174.886597
2066.918646	469.032166	469.440674	163.781982
2066.921976	466.226776	472.421417	153.670929
2066.925316	464.239624	474.174744	143.092346
2066.928638	462.310944	477.038605	131.870819
2066.931970	460.206909	478.616577	121.233795
2066.935352	457.343079	480.369965	109.252502
2066.938647	454.888367	482.006439	98.030945
2066.941978	451.966125	483.000000	87.160156
2066.945306	448.985382	484.168945	75.646393
2066.948670	445.478668	485.045593	63.080627
2066.951973	442.439514	485.688477	51.157806
2066.955310	438.465210	485.805389	38.825836
2066.958639	434.841614	485.279388	26.435425
2066.961978	430.516663	485.045593	14.512512
2066.965301	426.308594	484.344269	1.011719
2066.968641	421.691406	483.350677	-12.255432
2066.971968	417.132690	481.305084	-25.522522
2066.975304	412.164825	479.551727	-38.438965
2066.978665	406.670959	476.687927	-50.946228
2066.981975	400.709534	474.817657	-63.395142
2066.985306	394.631226	470.901825	-77.831116
2066.988640	388.611328	467.570435	-90.513794
2066.992901	375.285797	458.336060	-117.340149
2066.996156	367.103455	453.835785	-128.620117
2066.999487	360.089996	447.874359	-141.127380
2067.002843	351.849213	441.854462	-154.277649
2067.006162	342.965515	435.425507	-166.434265
2067.009507	334.023376	428.061371	-178.298706
2067.012412	325.256592	420.521912	-190.338440
2067.015749	315.496216	412.164246	-201.384583
2067.019079	306.437164	403.338989	-212.196960
2067.022425	296.969025	393.987732	-223.944458
2067.025730	287.033325	383.993561	-232.711304
2067.029057	276.805389	373.707184	-242.939270
2067.031963	266.694336	363.596161	-252.232056
2067.035302	256.115723	352.842224	-261.057312
2067.038633	245.887787	341.679138	-269.181213
2067.041966	235.250732	329.405609	-276.369995
2067.045299	224.146118	317.073639	-283.675659
2067.048636	213.333725	305.092346	-289.987732
2067.051966	202.988907	292.585022	-295.423157
2067.055296	192.760956	279.902405	-300.975464
2067.058631	182.182358	266.401520	-304.891296
2067.061964	171.662186	252.257751	-309.976074
2067.065302	161.609589	238.347748	-313.073669
2067.068631	151.790771	224.905304	-315.645264
2067.071998	142.322617	210.235535	-317.281677
2067.075294	132.503799	196.150208	-318.333801
2067.078634	122.684982	181.012848	-318.392151
2067.081960	113.158401	166.401520	-318.216858
2067.085298	104.800705	152.608414	-317.749268
2067.088627	96.618347	137.587952	-316.638794
2067.091962	87.384003	123.093506	-313.482849
2067.095297	79.260101	108.423721	-309.625427
2067.098626	71.428406	94.396835	-306.060181
2067.101992	64.005859	80.428398	-301.793762
2067.105288	56.349487	65.466393	-296.299805
2067.108631	49.160736	52.023956	-290.046204
2067.111957	42.264191	38.055519	-283.500366
2067.115295	36.653412	24.963760	-275.551758
2067.118618	30.808868	11.462879	-266.901855
2067.121958	24.613678	-1.161308	-258.251892
2067.126217	14.268860	-24.890121	-239.549438
2067.129550	9.651672	-36.345421	-228.970764
2067.132801	4.800690	-48.326714	-217.749268
2067.136126	1.410858	-58.963768	-206.235535
2067.139473	-1.219177	-69.483940	-194.137329
2067.142833	-5.368774	-78.835182	-182.039185
2067.145732	-8.057281	-88.069557	-170.057861
2067.149063	-10.278198	-97.362358	-155.505005
2067.152396	-12.031555	-105.953835	-142.237854
2067.155737	-14.836914	-114.311516	-128.210999
2067.159045	-16.298065	-121.266518	-114.184082
2067.162369	-17.116302	-128.221527	-100.215698
2067.165287	-17.233215	-134.942719	-86.188782
2067.168626	-18.226776	-141.430145	-71.109863
2067.171953	-17.817627	-146.281128	-55.797180
2067.175283	-17.583862	-151.073639	-41.302734
2067.178619	-17.408539	-156.216858	-26.866760
2067.181948	-16.181183	-160.249542	-12.489197
2067.185282	-15.070709	-163.814728	1.479248
2067.188631	-13.200470	-167.146118	15.330750
2067.191954	-11.388641	-170.828186	29.299194
2067.195281	-10.044403	-173.224426	43.618347
2067.198618	-7.122162	-175.796021	58.638794
2067.201946	-3.673859	-178.133820	70.795441
2067.205280	-1.336060	-179.770325	84.237854
2067.208618	1.060211	-180.997650	96.920471
2067.211947	4.099365	-182.166565	110.129150
2067.215320	7.021606	-182.926361	123.513123
2067.218651	10.353027	-183.627716	135.611328
2067.221950	14.502625	-184.095276	147.884827
2067.225279	17.483368	-184.329041	159.398590
2067.228618	20.814728	-184.738159	170.678528
2067.231964	24.379913	-184.562836	182.250702
2067.235276	28.237305	-183.861481	193.004669
2067.238615	32.270020	-184.153717	204.226166
2067.241947	35.367645	-182.984802	213.986542
2067.245279	39.166565	-181.757446	224.039124
2067.248611	43.725311	-181.348328	235.377533
2067.251946	46.998230	-179.887207	244.319702
2067.255279	52.083008	-179.010529	254.255371
2067.259946	60.440674	-176.205139	272.782562
2067.262868	63.888947	-174.334900	281.490936
2067.266193	68.389252	-172.289307	290.491516
2067.269485	71.662201	-170.886627	298.849182
2067.272800	75.285797	-168.724152	306.973083
2067.276169	80.253662	-167.087646	314.395660
2067.279474	83.701935	-164.340759	322.461121
2067.282378	87.793121	-162.762726	329.942139
2067.285716	91.358276	-160.366455	337.598450
2067.289051	95.624786	-157.970215	344.787231
2067.292383	99.131516	-155.106354	352.326691
2067.295763	102.872009	-153.119232	358.580353
2067.298603	106.495621	-150.138519	364.950867
2067.301941	110.411453	-147.859161	371.321411
2067.305270	114.385757	-145.930450	377.633545
2067.308605	117.541794	-143.008209	383.244293
2067.311935	121.048508	-140.670380	388.855042
2067.315274	124.555237	-137.514313	394.641113
2067.318645	127.769730	-135.468719	400.777893
2067.321940	131.568680	-132.838684	405.687286
2067.325282	134.315613	-130.442444	409.953796
2067.328605	137.939224	-127.520164	415.330780
2067.331933	141.270615	-125.533012	419.129730
2067.335265	144.075989	-123.253654	423.571564
2067.338603	146.472244	-121.324959	427.428955
2067.341939	149.745178	-119.045586	430.701904
2067.345267	152.375229	-116.883110	434.793091
2067.348604	156.583282	-114.486855	438.475159
2067.351930	159.037994	-112.265938	442.332520
2067.355270	161.492691	-110.278786	445.137909
2067.358613	164.005844	-107.999413	448.293976
2067.361971	166.577438	-106.362953	451.566895
2067.365266	169.675049	-103.908241	454.138489
2067.368617	171.837524	-101.745766	456.768524
2067.371931	174.526016	-100.167732	459.924591
2067.375260	176.688492	-97.654594	463.022186
2067.378601	178.967865	-95.784340	464.950897
2067.381935	181.539459	-94.673882	467.873169
2067.385263	184.286377	-92.920509	470.152527
2067.388601	186.331985	-90.991814	472.373444
2067.391930	187.968445	-89.472252	474.126801
2067.395268	190.364700	-87.426643	476.347717
2067.399931	194.455872	-84.445946	482.426056
2067.402879	195.975464	-82.575691	483.536499
2067.406191	197.845718	-81.231453	485.172974
2067.409508	199.657516	-79.419655	486.984772
2067.412805	201.878433	-77.490944	488.796600
2067.416121	203.047333	-76.497368	491.543518
2067.419017	204.859146	-74.451790	492.303314
2067.422352	207.313843	-72.873756	494.465790
2067.425682	208.248978	-71.120399	496.277588
2067.429063	209.768555	-69.600822	497.271179
2067.432368	211.638809	-68.841026	498.615417
2067.435265	212.866165	-67.146126	499.784332
2067.438588	214.736420	-65.684990	501.187012
2067.441928	215.788422	-64.223854	503.466370
2067.445263	216.840454	-62.821159	503.700165
2067.448626	218.476913	-61.944481	505.219727
2067.451924	219.996490	-60.191124	506.388641
2067.455281	221.516083	-59.080666	507.791321
2067.458595	222.451202	-57.970207	508.726471
2067.461923	223.386322	-57.210411	509.778473
2067.465253	224.730560	-55.515495	510.947388
2067.468599	225.665695	-54.638817	511.940948
2067.471921	226.659271	-53.469902	512.350098
2067.475258	227.828171	-52.651665	512.817627
2067.478590	229.172409	-51.774986	514.103455
2067.481918	230.165985	-50.313850	514.629456
2067.485252	231.393341	-49.904739	514.921692
2067.488581	232.270020	-48.969612	516.558105
2067.491918	232.854477	-48.034485	516.791931
2067.495252	233.672699	-47.683807	517.551697
2067.498601	234.900055	-47.040916	517.668579
2067.501922	235.718292	-46.398018	518.895935
2067.505292	235.893631	-45.521339	518.954407
2067.508586	237.004089	-45.112213	519.421936
2067.511924	237.471649	-44.410873	520.123291
2067.515248	237.880768	-44.235535	520.064880
2067.518579	238.465225	-43.826424	520.824646
2067.521914	239.926361	-42.657516	521.116882
2067.525250	240.101700	-42.014610	521.467529
2067.528587	240.978378	-41.371712	522.052002
2067.531923	241.095276	-40.787270	522.578003
2067.535254	241.504395	-40.904152	522.987122
2067.539926	242.731750	-39.852142	523.162476
2067.542821	243.433075	-39.326134	523.922241
2067.546184	243.491531	-38.507889	523.688477
2067.549513	244.368210	-38.566338	524.740479
2067.552762	245.069550	-37.514328	524.506714
2067.556116	244.894226	-37.981888	525.441833
2067.559429	245.303345	-37.631210	525.441833
2067.562779	245.946228	-37.572762	525.850952
2067.565674	245.770905	-36.988319	526.376953
2067.569023	245.946228	-36.988319	526.260071
2067.572352	246.764465	-36.812981	525.617187
2067.575692	246.998260	-36.696083	526.260071
2067.579074	246.998260	-35.527184	525.850952
2067.582338	246.939804	-36.111641	527.428955
2067.585241	247.933380	-35.877861	526.669189
2067.588576	247.348923	-35.527184	527.721191
2067.591912	247.641144	-35.176514	527.370544
2067.595244	248.050262	-35.585625	527.896545
2067.598603	247.874939	-35.585625	526.961426
2067.601914	247.641144	-35.410294	527.721191
2067.605247	248.050262	-34.650505	526.552307
2067.608578	247.699600	-35.293396	526.493835
2067.611905	247.816483	-34.884285	527.195190
2067.615244	247.290466	-35.234947	527.428955
2067.618578	247.465820	-35.293396	527.662781
2067.621905	247.407364	-35.527184	527.136719
2067.625240	247.758026	-35.644073	527.078308
2067.628570	247.465820	-35.877861	526.493835
2067.631907	246.939804	-36.754532	527.195190
2067.635241	246.647583	-36.170074	526.026306
2067.638581	246.530701	-36.579201	525.558716
2067.641928	245.887787	-37.338982	525.675598
2067.645244	245.829346	-37.748108	525.850952
2067.648573	245.420227	-38.098778	525.850952
2067.651903	245.595566	-38.391006	525.441833
2067.655234	245.361786	-38.858566	524.682068
2067.658573	244.718872	-39.793694	524.857361
2067.661902	244.251312	-40.085922	523.980713
2067.665238	243.491531	-40.553482	524.565125
2067.668571	243.842194	-41.313263	523.863831
2067.671924	243.023972	-41.547050	523.863831
2067.675236	243.140854	-42.482170	522.168884
2067.678564	242.264175	-42.891296	522.461121
2067.683247	241.445938	-44.936882	521.233765
2067.686185	240.978378	-45.345993	520.357056
2067.689506	240.335480	-45.579781	520.240173
2067.692755	239.575684	-46.281120	520.181763
2067.696083	239.575684	-47.040916	519.188171
2067.699420	239.049683	-47.976036	518.428406
2067.702315	238.056122	-48.677383	518.253052
2067.705656	237.120987	-49.378731	517.376343
2067.708995	236.828766	-49.495621	517.610168
2067.712346	235.601410	-50.839867	516.499695
2067.715697	234.724731	-51.015198	516.090576
2067.718571	234.257172	-52.768562	516.791931
2067.721894	233.205139	-53.586784	515.564575
2067.725230	232.211578	-54.405037	514.395630
2067.728582	231.334900	-54.989479	513.635864
2067.731896	230.691986	-56.275276	512.700745
2067.735231	229.932205	-57.327293	512.233154
2067.738564	228.061951	-58.379311	511.181152
2067.741905	226.893036	-59.489769	510.830505
2067.745230	225.841034	-60.834007	509.778473
2067.748562	224.789017	-61.769157	508.434235
2067.751893	223.561661	-63.347176	507.206879
2067.755233	223.035660	-64.516075	505.921082
2067.758561	221.223846	-65.801872	505.628845
2067.761888	220.230270	-67.087669	504.050842
2067.765224	218.652252	-68.665688	502.180573
2067.768562	217.775574	-69.600822	501.011658
2067.771905	215.788422	-71.003502	499.024536
2067.775222	214.035080	-72.873756	498.615417
2067.778564	213.041504	-74.334892	496.745148
2067.781908	211.229691	-76.146690	495.576263
2067.785232	210.236130	-77.841621	493.355316
2067.788554	208.891876	-80.004097	491.660400
2067.791892	207.196960	-81.757454	490.140839
2067.795219	205.443604	-83.101707	487.978363
2067.798552	204.274689	-85.205727	486.575684
2067.801925	202.112213	-87.075981	484.296295
2067.805228	200.534195	-88.303337	482.192261
2067.808552	198.663940	-90.290474	479.971344
2067.811890	196.150787	-92.160728	477.925751
2067.815224	195.040329	-94.323204	475.471069
2067.818556	192.527176	-96.661018	473.191681
2067.822748	189.078903	-100.576866	468.165375
2067.826138	187.442444	-103.090004	466.061340
2067.829484	185.163055	-105.018715	463.197510
2067.832799	183.175919	-106.772057	460.801270
2067.836068	180.721222	-109.168327	457.762115
2067.838984	179.143188	-111.681465	454.606079
2067.842312	176.337814	-113.551720	451.859131
2067.845667	173.883102	-116.006432	449.345978
2067.848975	171.662186	-118.344246	445.488586
2067.852310	168.973694	-120.097618	442.332520
2067.855660	166.518997	-123.312096	438.650482
2067.858551	164.298065	-125.533012	435.728210
2067.861880	161.492691	-127.812401	431.403259
2067.865253	159.330215	-130.033325	427.428955
2067.868553	156.291061	-132.312683	423.045593
2067.871882	153.661011	-135.059631	418.194611
2067.875215	151.089417	-137.689636	415.272339
2067.878549	147.758026	-140.261261	409.427795
2067.881880	144.952652	-142.365265	404.401489
2067.885218	141.562820	-144.936890	399.667419
2067.888562	138.815903	-147.917603	395.050232
2067.891880	135.718307	-149.963165	390.140808
2067.895214	132.328461	-152.534790	383.361176
2067.898548	128.938629	-155.223267	377.633545
2067.901877	126.016357	-158.437775	372.081238
2067.905211	122.801880	-161.126251	366.119781
2067.908546	119.645813	-163.931610	358.404999
2067.911881	116.255997	-165.860321	352.326691
2067.915212	112.924606	-168.841034	345.371704
2067.918550	110.236130	-171.529510	338.124451
2067.921875	106.963181	-173.925781	331.344788
2067.925204	103.807144	-176.731140	323.863800
2067.928539	99.715958	-179.711884	314.687866
2067.931888	96.676804	-182.341919	307.148437
2067.935212	93.520737	-185.264160	298.615417
2067.938540	90.130920	-187.192871	290.959045
2067.941874	86.741089	-190.173584	282.250702
2067.945206	83.643494	-192.745178	272.490356
2067.948536	80.136749	-194.790771	263.489746
2067.953164	73.649323	-199.758636	243.559906
2067.956081	69.616608	-201.804199	234.091736
2067.959404	66.811218	-204.025116	222.636444
2067.962802	63.012268	-205.486267	212.291626
2067.966159	59.797791	-207.298065	201.362335
2067.968966	56.933960	-209.226746	190.257721
2067.972303	53.836334	-210.571014	178.860901
2067.975664	50.329651	-211.739929	166.528900
2067.978968	47.115143	-213.317932	154.313843
2067.982297	44.192871	-214.194611	142.507874
2067.985204	40.861481	-215.480438	129.474579
2067.988538	38.231445	-215.831085	116.675018
2067.991873	35.601410	-215.655762	103.349487
2067.995197	32.796021	-216.357086	90.374603
2067.998541	30.458221	-215.772644	76.756836
2068.001868	27.886597	-215.597290	62.905304
2068.005201	26.016357	-214.136169	48.410828
2068.008540	23.678558	-213.727051	33.682617
2068.011866	21.866760	-212.324371	19.480408
2068.015256	20.639404	-210.454102	6.213318
2068.018559	18.944489	-208.116302	-9.157837
2068.021867	17.424896	-205.603149	-23.827637
2068.025200	16.665100	-202.154877	-39.666260
2068.028533	15.379303	-199.115723	-53.926941
2068.031872	15.496216	-195.375214	-69.590271
2068.035202	15.145538	-190.816467	-85.195251
2068.038539	15.203979	-186.549988	-101.267700
2068.041863	15.496216	-181.757446	-115.586792
2068.045201	16.022217	-176.146698	-131.074829
2068.048530	17.191132	-170.302155	-146.153748
2068.051863	18.067780	-164.340759	-160.239014
2068.055193	19.879608	-157.736420	-175.434814
2068.058532	22.626556	-150.021637	-189.929321
2068.061885	25.315033	-142.949738	-204.540649
2068.065197	28.120392	-134.884277	-217.807739
2068.068528	31.802460	-126.117485	-231.250183
2068.071864	35.718292	-117.584450	-245.160156
2068.075192	39.400330	-107.531853	-257.609009
2068.078535	44.485107	-97.829918	-270.350159
2068.083135	54.479248	-76.672707	-293.202271
2068.086055	60.206879	-65.801872	-304.540588
2068.089366	66.986572	-54.288139	-315.119202
2068.092747	72.714203	-41.722389	-324.938049
2068.096062	79.610748	-29.682648	-333.588013
2068.099513	86.682648	-16.883118	-340.835144
2068.102781	94.105194	-4.434250	-348.199341
2068.105643	101.878433	8.189941	-355.154297
2068.108957	110.002335	22.450611	-362.167786
2068.112283	118.009354	35.893044	-366.726440
2068.115615	125.899490	50.504379	-370.817627
2068.118957	134.841614	64.297485	-374.207458
2068.122280	142.907074	78.675041	-377.655762
2068.125189	151.849213	92.935707	-379.175354
2068.128524	160.732910	107.371712	-380.870300
2068.131853	170.551727	121.573929	-381.045593
2068.135191	180.195221	135.951477	-379.759827
2068.138527	189.488022	150.679718	-378.941589
2068.141873	199.306839	165.232605	-377.655762
2068.145188	209.184097	179.902390	-374.908875
2068.148519	218.827591	194.572174	-370.700806
2068.151854	228.529510	209.183502	-366.784912
2068.155190	238.640564	223.619537	-361.641785
2068.158518	248.810059	237.178833	-356.790771
2068.161853	258.745758	251.030396	-350.653992
2068.165190	268.564575	264.765045	-343.523682
2068.168520	277.974304	277.798370	-336.510254
2068.171854	287.033325	290.773224	-327.509644
2068.175187	297.553467	303.455872	-319.619507
2068.178522	306.670959	315.378723	-310.092957
2068.181851	316.139099	327.243134	-299.806580
2068.185183	325.841034	338.406189	-289.987732
2068.188515	335.250732	349.101715	-279.116882
2068.191853	344.485107	359.095856	-267.661621
2068.195180	353.719452	368.973114	-256.498535
2068.198517	362.077148	378.499725	-243.465271
2068.201846	370.843964	387.266510	-232.302185
2068.205188	379.026306	395.448883	-220.671570
2068.208517	387.208649	403.981903	-207.930481
2068.211849	394.338989	411.229095	-195.481628
2068.215189	401.819977	418.125641	-182.857422
2068.218511	408.891876	424.320862	-170.057861
2068.221851	416.080658	429.814728	-157.784363
2068.225181	422.743439	436.243713	-144.225037
2068.228514	429.055542	441.153137	-131.308594
2068.233136	440.627716	450.270599	-105.066650
2068.236080	446.238464	453.894196	-91.273560
2068.239442	451.381653	457.342499	-79.175354
2068.242778	455.940399	459.972534	-66.317383
2068.246091	460.206909	462.485687	-53.167175
2068.249370	465.350098	464.823517	-39.958557
2068.252697	469.791931	465.992401	-27.100525
2068.256027	473.766235	467.921112	-15.353027
2068.258941	476.863831	469.206909	-2.144409
2068.262272	480.019867	469.499146	10.246033
2068.265628	482.942139	470.960266	22.344238
2068.268955	485.689087	471.135590	34.968414
2068.272286	488.260681	471.369385	47.241974
2068.275605	490.189362	471.720062	59.457001
2068.278538	492.001160	470.726501	71.496765
2068.281842	494.046753	469.732910	82.367584
2068.285176	495.800110	469.323792	92.829315
2068.288507	496.793701	467.745789	104.869080
2068.291845	498.137939	466.226196	115.681458
2068.295168	499.248413	465.174164	126.260071
2068.298510	500.358856	463.713043	137.715363
2068.301840	501.352417	461.725891	147.358826
2068.305175	501.703094	459.621857	157.995911
2068.308507	502.813538	457.868500	168.983612
2068.311841	502.872009	455.881348	179.269989
2068.315168	503.514893	452.959076	187.744568
2068.318505	504.040894	451.088837	196.336029
2068.321852	504.333130	448.108124	206.388641
2068.325169	504.450043	445.361206	215.681458
2068.328510	504.099365	442.848022	224.272919
2068.331834	504.391602	440.568695	232.221497
2068.335212	503.982483	436.828186	240.637634
2068.338508	504.274689	433.789001	248.527740
2068.341837	503.982483	431.042084	256.184082
2068.345175	502.872009	428.119812	263.723541
