time (s)	magX	magY	magZ
6129.232366	396.443024	423.093506	237.014008
6129.235706	394.397430	426.132690	227.428986
6129.240335	390.364716	429.931610	204.752167
6129.243667	388.026886	431.451202	193.063110
6129.246569	385.805969	433.730591	182.250702
6129.249982	383.000580	435.016357	169.860291
6129.253317	380.312103	435.425507	156.359436
6129.256613	377.039154	436.009918	144.202789
6129.259889	374.175354	436.477478	131.227905
6129.263243	370.785522	435.776154	118.720612
6129.266126	367.804810	434.899475	105.102844
6129.269455	363.888947	433.613678	91.777313
6129.272797	360.206909	431.860321	77.691956
6129.276127	356.407959	429.990082	64.600220
6129.279482	352.433655	427.360046	50.748657
6129.282809	346.472229	423.970184	37.072449
6129.285702	342.381073	420.112793	22.519562
6129.289035	337.647003	416.196960	8.375793
6129.292402	333.029816	411.112213	-4.832825
6129.295701	328.295746	406.436584	-17.632385
6129.299030	323.444763	400.299835	-31.250183
6129.302360	317.541809	394.221527	-43.231445
6129.305720	311.638794	387.558746	-56.790771
6129.309033	306.203400	380.194641	-69.824097
6129.312368	299.949738	372.129181	-82.740540
6129.315699	294.280548	363.771484	-94.137329
6129.319037	288.085327	354.770905	-105.943298
6129.322365	282.123901	345.828766	-116.989502
6129.325696	275.168915	335.776154	-127.509644
6129.329031	269.090607	325.489777	-138.088318
6129.332362	261.025146	314.618927	-147.848694
6129.335714	254.713043	303.631195	-158.193481
6129.339025	247.641144	292.000580	-167.018738
6129.342360	240.803040	279.259491	-175.785522
6129.345701	234.257172	266.810638	-183.383423
6129.349042	225.957916	253.309753	-190.338440
6129.352364	218.944489	238.873749	-197.118042
6129.355694	211.814148	224.846863	-202.904175
6129.359030	204.566925	210.761536	-208.748718
6129.362361	197.319702	195.507294	-212.781433
6129.365690	190.715378	179.902390	-217.223267
6129.369026	183.643494	164.355927	-220.087097
6129.372355	176.571594	148.400360	-223.126282
6129.375695	169.616608	132.269440	-225.522522
6129.379052	162.661606	116.547630	-225.697876
6129.382360	156.524841	100.533600	-225.113403
6129.385684	150.680313	84.578018	-224.002930
6129.389024	144.894226	67.278198	-222.950928
6129.393714	133.438919	34.315014	-216.521973
6129.396635	129.055527	18.593216	-211.495667
6129.399893	124.496796	3.046753	-205.768005
6129.403223	120.171829	-12.441261	-198.637634
6129.406524	116.372879	-27.812393	-192.968506
6129.409883	113.099930	-41.722389	-185.019897
6129.413218	109.768555	-56.041496	-175.610168
6129.416614	107.547638	-68.899483	-166.375854
6129.419459	105.034500	-82.458809	-156.557007
6129.422821	103.047348	-94.206322	-145.803040
6129.426111	101.527771	-106.246056	-135.282898
6129.429443	99.599075	-116.473991	-122.541809
6129.432774	99.365280	-127.227943	-111.320312
6129.436121	98.780823	-136.345428	-99.514343
6129.439012	98.371719	-145.053772	-85.955017
6129.442351	98.663956	-153.703674	-72.629456
6129.445687	98.663956	-161.184692	-58.251892
6129.449017	98.313263	-167.613678	-45.335510
6129.452345	99.073059	-174.101135	-32.009949
6129.455685	100.008179	-179.594971	-18.216858
6129.459010	101.060196	-185.322632	-3.839294
6129.462345	101.644669	-189.998260	10.538269
6129.465701	103.105789	-193.329620	24.389832
6129.469015	104.800705	-198.122131	38.416718
6129.472372	106.144958	-200.927521	53.378723
6129.475679	108.132080	-203.499115	67.522461
6129.479016	110.002335	-205.661591	81.549347
6129.482346	111.346588	-207.648743	95.167145
6129.485679	113.742859	-209.635895	109.135559
6129.489016	116.606674	-210.395660	122.753326
6129.492352	118.769150	-211.038574	136.780212
6129.495677	121.983627	-211.272369	149.871979
6129.499011	123.970779	-211.681458	163.665100
6129.502344	127.886612	-211.623016	176.815308
6129.505673	130.399780	-210.804810	190.257721
6129.509025	134.023376	-210.103455	203.057251
6129.512346	137.296326	-209.109894	215.564575
6129.515679	140.686157	-208.116302	227.487396
6129.519008	143.608429	-206.479828	239.410278
6129.522339	147.115143	-204.784912	251.040894
6129.525676	151.790771	-202.973114	262.262390
6129.529010	154.654587	-200.752197	274.185242
6129.532350	158.219757	-198.648132	284.471649
6129.535675	162.544724	-196.193451	294.641113
6129.539014	165.759216	-192.978943	304.927490
6129.542338	169.032150	-190.173584	314.629456
6129.545707	173.181763	-187.777313	324.448242
6129.549009	177.156052	-185.030396	333.916382
6129.553631	183.935715	-178.601379	351.274658
6129.556543	187.793106	-175.270020	359.924591
6129.559921	191.124496	-172.756866	367.464050
6129.563255	194.572754	-169.133270	373.717682
6129.566588	198.137924	-166.386322	381.432465
6129.569888	201.177094	-162.645813	387.335449
6129.573184	204.040909	-159.548218	394.641113
6129.576524	207.606079	-156.275269	400.544098
6129.579428	210.353012	-152.885437	405.979523
6129.582767	213.216827	-149.846313	412.233185
6129.586116	215.379318	-146.105804	417.843933
6129.589481	218.769150	-143.183533	422.928680
6129.592778	221.048508	-139.384552	427.428955
6129.596142	223.386322	-136.637665	432.630615
6129.598998	225.724136	-133.832275	437.189331
6129.602331	228.120392	-130.968445	440.988281
6129.605666	230.925781	-128.279968	445.021027
6129.608997	233.088257	-124.305672	449.462860
6129.612333	235.309174	-121.850960	452.560486
6129.615668	237.822327	-119.454704	457.177673
6129.619004	240.043243	-116.006432	460.099915
6129.622333	241.913498	-112.908821	463.723541
6129.625663	243.374634	-109.986565	466.762695
6129.629001	245.653992	-107.005852	470.620087
6129.632352	247.816483	-103.908241	473.659241
6129.635661	249.102295	-101.161308	476.406189
6129.638996	250.621857	-98.239052	478.860870
6129.642331	252.784332	-95.667442	482.601379
6129.645666	255.180603	-92.745186	485.289856
6129.648999	256.641724	-90.173592	488.153687
6129.652333	258.745758	-87.718880	490.608398
6129.655663	260.557556	-85.088829	493.530670
6129.658992	262.720062	-82.225029	495.810028
6129.662334	264.005859	-79.828758	498.440063
6129.665660	265.583862	-77.841621	500.427216
6129.668994	266.752777	-75.270027	502.414368
6129.672330	268.564575	-72.756874	504.401489
6129.675693	269.733490	-70.769722	506.914642
6129.678992	271.194641	-68.607246	508.492676
6129.682324	272.772644	-65.860313	510.012268
6129.685659	274.526001	-64.749855	511.824066
6129.688991	275.811798	-62.645821	513.460510
6129.692325	277.331390	-60.658684	514.395630
6129.695661	278.675629	-58.028633	516.733459
6129.698996	280.195190	-56.742851	517.668579
6129.702323	281.188782	-54.931038	519.947937
6129.705663	281.597900	-53.645241	520.532410
6129.708990	283.409698	-51.833435	521.526001
6129.713241	285.338409	-48.852715	524.097595
6129.716511	285.922852	-46.865578	524.682068
6129.719867	286.741089	-46.222687	525.441833
6129.723168	287.793121	-43.241966	525.617187
6129.726529	288.552887	-42.599068	526.610718
6129.729864	289.780243	-41.488609	527.954956
6129.733227	290.540039	-40.085922	528.130310
6129.736137	291.241394	-39.267685	529.065430
6129.739415	292.410278	-37.806541	530.117432
6129.742760	293.286987	-36.345421	531.286377
6129.746078	293.520752	-35.234947	532.805969
6129.749417	293.988312	-34.066048	533.273499
6129.752741	294.338989	-32.780251	534.033325
6129.756074	294.981873	-32.371124	534.617737
6129.758984	295.624786	-30.851555	535.377563
6129.762326	296.209229	-30.208656	536.721802
6129.765652	296.676788	-29.215080	535.786682
6129.768985	297.085907	-27.987732	536.371094
6129.772318	297.611938	-26.643486	537.247803
6129.775648	298.313263	-26.643486	537.247803
6129.778981	299.014618	-24.831688	537.306213
6129.782317	299.540619	-24.481010	538.884277
6129.785643	299.540619	-23.253654	538.475159
6129.788989	300.358856	-21.675636	539.994751
6129.792321	301.118652	-21.383400	540.345398
6129.795649	301.118652	-20.915840	540.111633
6129.798978	301.469330	-19.980713	540.579163
6129.802315	302.462891	-18.987144	541.105164
6129.805677	302.521332	-18.052025	540.637634
6129.808983	303.105774	-17.526009	541.689636
6129.812308	303.865570	-16.824669	542.449402
6129.815645	304.157806	-16.357101	543.384521
6129.818982	304.333130	-15.538872	543.442993
6129.822312	304.800720	-14.837524	543.618347
6129.825644	305.268250	-14.545296	543.852112
6129.828981	305.677368	-13.551727	543.501465
6129.832312	305.794281	-13.668617	543.735229
6129.835651	306.028046	-13.317947	543.735229
6129.838975	306.437164	-12.382820	544.378113
6129.842315	307.080078	-12.265930	544.319702
6129.845646	307.664520	-11.681480	544.319702
6129.849011	307.372314	-11.330803	544.728821
6129.852309	307.430756	-11.272354	545.430115
6129.855656	307.489197	-11.506142	545.020996
6129.858974	308.248962	-11.038574	544.494995
6129.862307	308.482758	-10.512573	545.254822
6129.865643	308.307434	-10.746353	545.430115
6129.868975	308.190521	-10.863243	545.956177
6129.873666	307.956757	-10.395683	545.605469
6129.876554	308.833435	-10.161896	545.371704
6129.879893	308.891876	-10.045006	545.605469
6129.883209	308.716553	-9.869667	545.371704
6129.886518	308.190521	-9.928116	546.073059
6129.889829	308.132080	-10.045006	544.728821
6129.893217	308.424316	-9.928116	545.137939
6129.896512	308.541199	-9.811226	544.962585
6129.899435	308.073639	-9.869667	545.663940
6129.902752	308.073639	-9.694336	545.430115
6129.906077	307.839874	-9.928116	545.430115
6129.909390	307.547638	-10.220345	545.196350
6129.912736	308.132080	-10.220345	544.845703
6129.916058	307.839874	-9.986557	545.079468
6129.918968	307.664520	-10.220345	544.553467
6129.922301	307.489197	-9.460556	544.202759
6129.925634	307.664520	-10.454124	544.787231
6129.928966	308.248962	-10.220345	544.319702
6129.932303	307.606079	-9.752777	544.027466
6129.935660	307.547638	-10.629463	544.027466
6129.938969	307.080078	-10.629463	545.196350
6129.942303	307.606079	-11.155464	544.378113
6129.945638	307.313843	-11.447693	545.547058
6129.948968	307.021637	-11.389252	544.494995
6129.952298	306.787842	-11.623032	544.962585
6129.955631	307.196960	-11.915260	544.845703
6129.958992	306.846283	-12.558151	545.313232
6129.962301	306.437164	-12.908829	544.787231
6129.965630	306.670959	-13.259499	544.787231
6129.968966	306.086487	-13.668617	544.670349
6129.972301	306.437164	-13.843956	545.020996
6129.975628	306.086487	-14.428406	543.793640
6129.978999	306.261841	-15.246643	543.735229
6129.982296	305.502045	-16.298660	544.085876
6129.985635	305.209808	-17.000008	543.326111
6129.988962	304.859161	-17.467567	543.150757
6129.992298	304.274689	-18.402695	542.683228
6129.995626	304.099365	-18.402695	543.150757
6129.998965	303.807129	-19.162483	542.215637
6130.002294	303.573364	-20.623619	541.748108
6130.005628	302.521332	-20.740509	541.572754
6130.008958	302.112213	-21.850967	540.696045
6130.012298	302.112213	-22.435417	540.111633
6130.015628	301.586212	-23.779663	540.520752
6130.018960	301.060211	-24.597900	539.468689
6130.022315	300.358856	-25.766815	539.176514
6130.026910	299.073059	-27.753944	537.423096
6130.030245	298.605499	-29.390419	537.247803
6130.033170	297.495026	-30.617775	536.312683
6130.036498	296.618347	-31.494446	535.611328
6130.039905	296.501465	-32.838692	535.202209
6130.043221	295.683228	-33.247818	534.442383
6130.046555	294.864990	-34.416725	534.033325
6130.049804	294.105194	-35.936295	534.091736
6130.052762	293.520752	-37.046768	532.981262
6130.056042	292.585632	-37.981888	532.455261
6130.059372	292.118073	-39.793694	531.637024
6130.062716	291.942719	-40.845703	530.526550
6130.066052	290.481598	-42.073059	530.526550
6130.069394	289.838684	-43.592644	529.474548
6130.072290	288.494446	-45.053780	527.721191
6130.075619	288.728241	-46.398018	526.786072
6130.078954	287.383972	-47.917595	526.435425
6130.082283	286.741089	-49.437172	524.156006
6130.085622	286.215088	-51.599655	523.805359
6130.088955	284.637054	-52.943901	523.279358
6130.092288	284.111053	-53.995918	521.876648
6130.095656	283.760376	-56.041496	521.116882
6130.098955	282.649902	-57.970207	520.006409
6130.102283	281.597900	-59.606667	519.246643
6130.105615	280.779663	-62.002937	517.960815
6130.108975	280.019867	-63.639397	516.850342
6130.112283	278.617187	-65.684990	515.038574
6130.115618	277.272949	-67.496788	513.343628
6130.118947	275.987152	-70.009926	511.882507
6130.122283	274.526001	-72.464638	511.122711
6130.125616	273.532440	-74.977791	508.960236
6130.128947	272.246643	-77.315605	506.622437
6130.132285	270.434845	-80.062538	504.109283
6130.135616	268.973694	-82.108131	502.122131
6130.138949	266.869659	-84.387489	499.784332
6130.142279	265.408539	-86.433083	496.803589
6130.145621	264.064301	-89.589134	494.641113
6130.148950	262.720062	-92.511406	492.537109
6130.152309	260.908234	-95.375221	488.913483
6130.155612	258.921112	-98.122154	485.932770
6130.158961	256.875519	-100.752205	482.952057
6130.162275	255.122162	-103.849800	480.906464
6130.165606	253.310349	-106.772057	477.516632
6130.168942	250.914093	-109.752785	473.834595
6130.172282	248.342499	-112.850380	470.152527
6130.175608	246.764465	-115.947990	465.710693
6130.178944	244.368210	-119.045586	463.197510
6130.182278	242.264175	-121.558739	459.047913
6130.186943	237.822327	-127.286400	451.157776
6130.189856	235.659851	-130.793091	446.891266
6130.193236	233.438934	-133.773804	443.092316
6130.196463	231.685577	-136.929871	438.592041
6130.199791	228.821747	-140.436584	433.741058
6130.203177	226.425476	-143.125061	429.182312
6130.206480	223.795441	-146.456451	424.214478
6130.209813	222.042084	-150.080078	418.779053
6130.212715	219.587372	-153.411469	413.518982
6130.216063	217.015778	-156.742859	407.265320
6130.219366	214.093521	-160.074219	401.070129
6130.222695	211.931046	-163.113403	395.400909
6130.226036	209.476334	-166.853882	388.504364
6130.229361	206.320282	-169.600830	383.010498
6130.232271	203.982483	-173.165985	375.412598
6130.235603	200.943298	-176.555817	368.457611
6130.238941	198.780838	-179.478088	360.509033
6130.242272	196.443024	-182.984802	352.385132
6130.245629	193.462311	-186.666840	343.968994
6130.248937	189.429565	-190.115143	335.260651
6130.252264	187.033325	-194.323212	326.376953
6130.255606	183.877274	-196.777893	316.032135
6130.258936	181.539459	-199.933960	306.330200
6130.262269	178.617187	-202.914673	295.576233
6130.265652	175.753357	-206.129150	285.815857
6130.268941	172.538864	-208.466980	274.652832
6130.272264	168.564590	-210.921661	263.606659
6130.275602	165.466980	-213.434814	251.625366
6130.278934	162.427826	-215.772644	239.644073
6130.282270	159.271774	-217.759766	226.669189
6130.285598	156.174179	-219.688477	213.928101
6130.288962	153.251907	-221.792511	199.784302
6130.292270	149.920517	-221.675598	187.686127
6130.295597	147.173569	-222.786102	174.477478
6130.298931	143.491531	-223.954987	159.573914
6130.302273	140.569260	-223.896545	145.196350
6130.305596	137.237885	-223.721222	131.169464
6130.308936	135.133835	-223.545868	116.733490
6130.312265	132.445358	-222.318542	102.706604
6130.315594	129.698425	-220.623627	87.569214
6130.318929	127.068375	-219.571594	73.600800
6130.322261	124.905899	-217.876678	58.054352
6130.325634	123.386337	-214.545288	42.332550
6130.328931	121.165405	-211.564575	28.013397
6130.332289	119.821167	-208.174744	13.460510
6130.335602	118.769150	-204.142029	-0.741699
6130.338922	116.781998	-200.401520	-16.405029
6130.342260	116.723572	-194.498535	-30.665710
6130.345603	116.255997	-190.115143	-45.569275
6130.350212	115.963776	-177.607819	-73.155457
6130.353130	115.613098	-171.061951	-88.175903
6130.356514	116.606674	-164.048523	-101.209290
6130.359859	117.950912	-156.041504	-114.710083
6130.363193	119.528946	-147.917603	-128.678589
6130.366437	120.990067	-138.624786	-140.776733
6130.369777	123.152542	-129.156647	-153.342468
6130.373106	125.198135	-118.870262	-164.973145
6130.376053	128.003510	-107.940971	-176.077759
6130.379345	131.276443	-95.959679	-186.948608
6130.382694	134.198715	-83.919930	-196.767395
6130.386034	137.939224	-71.061958	-206.177124
6130.389364	141.270615	-58.145531	-214.417908
6130.392671	145.712448	-43.475746	-222.600220
6130.395587	150.154297	-28.922852	-230.081238
6130.398922	155.297485	-14.136185	-235.925781
6130.402254	160.440689	1.118050	-241.770325
6130.405585	165.642319	17.073639	-245.160156
6130.408926	170.960846	32.444763	-249.192871
6130.412256	176.980713	48.867912	-251.764526
6130.415584	182.533035	65.466393	-252.290527
6130.418942	188.728226	83.058441	-253.400940
6130.422249	194.923447	99.773811	-252.407349
6130.425589	201.001755	115.963173	-250.595581
6130.428922	206.495621	132.970779	-247.381104
6130.432255	213.918182	149.627701	-243.406799
6130.435583	220.230270	165.466385	-239.432495
6130.438920	226.893036	182.064865	-234.289307
6130.442310	234.081833	198.137344	-227.977234
6130.445591	240.510803	213.566925	-221.665100
6130.448912	246.764465	227.886017	-214.476379
6130.452256	252.959686	242.088257	-205.884888
6130.455586	259.330231	257.634705	-197.234985
6130.458910	266.226776	270.375793	-188.526611
6130.462244	272.831116	282.941559	-178.181824
6130.465584	278.967865	295.565735	-168.246094
6130.468920	285.747528	307.313263	-158.485718
6130.472247	292.234955	318.184113	-146.504395
6130.475595	298.313263	329.171814	-136.042725
6130.478910	304.508484	339.458221	-123.944458
6130.482248	311.171265	348.751007	-112.956787
6130.485581	316.606659	357.693176	-101.384583
6130.488909	322.158966	365.992401	-89.286377
6130.492248	327.828186	373.940979	-76.720642
6130.495579	333.322021	381.188202	-64.096436
6130.498910	338.523682	387.792511	-51.121582
6130.502272	343.842194	393.870850	-39.666260
6130.506880	355.589722	404.566345	-13.190552
6130.510206	360.382233	409.008179	-0.566345
6130.513142	365.408539	413.625366	12.817627
6130.516436	370.201050	417.424316	25.266479
6130.519884	374.116882	420.346588	39.118042
6130.523186	377.915833	422.976624	51.216217
6130.526490	381.597900	424.963745	66.178253
6130.529757	385.513733	427.593811	79.036224
6130.532670	388.728241	428.470490	91.017517
6130.535997	391.942719	429.697845	104.343079
6130.539338	394.981873	430.165405	116.733490
6130.542675	397.787262	430.516083	129.766785
6130.546000	400.358856	431.275879	142.858551
6130.549377	402.346008	430.749878	154.664490
6130.552240	403.924011	429.814728	166.178223
6130.555578	406.378723	428.821167	178.510193
6130.558919	408.307434	427.243134	189.790161
6130.562243	409.885437	425.840454	201.829895
6130.565573	410.762115	423.853302	212.525391
6130.568900	412.457031	422.625946	222.636444
6130.572241	412.866150	420.521912	233.331940
6130.575575	414.093506	417.833435	244.202789
6130.578904	415.087097	415.320282	254.313843
6130.582235	415.437744	412.339569	262.671539
6130.585568	415.554657	409.534180	271.905884
6130.588905	416.314453	406.319702	280.789581
6130.592254	417.308014	403.806549	289.731720
6130.595569	417.834015	400.708923	297.914062
6130.598902	418.009338	396.325531	305.570404
6130.602232	418.067810	393.695496	313.168304
6130.605569	418.243134	389.896545	320.824646
6130.608897	418.243134	386.915833	327.195190
6130.612233	418.476929	383.116882	333.916382
6130.615570	418.769135	379.668610	339.994720
6130.618898	419.353577	376.512573	347.358826
6130.622246	419.178253	372.187622	353.320251
6130.625570	418.710693	368.680908	360.099915
6130.628899	419.295166	365.758636	364.600220
6130.632229	419.178253	362.427246	370.269409
6130.635604	419.119812	358.686737	375.529480
6130.638904	418.944489	355.472260	381.081787
6130.642227	419.119812	351.848633	385.698975
6130.645566	418.827576	347.991211	390.257721
6130.648918	418.886047	344.952087	395.751587
6130.652231	419.002930	341.270020	400.836334
6130.655560	418.360046	337.646423	404.518372
6130.658896	418.126251	334.431915	409.603149
6130.662227	417.834015	331.334290	414.103424
6130.665562	417.308014	327.769135	418.311493
