time (s)	magX	magY	magZ
3555.683115	414.970215	339.107544	367.113342
3555.686419	415.788422	341.912903	360.041473
3555.689756	416.431335	345.887207	353.437134
3555.693111	416.781982	348.751007	346.832825
3555.696416	417.424896	351.907074	339.351807
3555.699752	417.600220	355.764465	332.279938
3555.703085	417.424896	358.686737	324.974243
3555.706419	417.658691	361.784332	316.090576
3555.709754	417.834015	365.232605	307.089966
3555.713082	418.067810	368.388672	298.732300
3555.716415	417.892456	370.551147	289.965515
3555.719751	417.366455	373.940979	279.854431
3555.723079	416.898895	375.694336	270.444763
3555.726414	415.379303	378.675049	260.567474
3555.729751	414.970215	381.421967	249.462891
3555.733079	413.509064	383.876678	239.936279
3555.736438	412.340149	385.220917	229.708344
3555.739747	410.645233	387.091187	218.311493
3555.743086	408.599670	388.669189	207.440643
3555.746507	407.138519	389.662750	195.868469
3555.749747	405.092926	390.071899	184.413177
3555.753081	402.696655	390.539459	173.483917
3555.756419	400.943298	391.357666	160.918152
3555.759741	398.430176	391.182343	148.936859
3555.763080	396.150787	390.481018	136.897125
3555.766415	393.579193	389.779663	124.506714
3555.769745	391.241394	388.727631	113.285187
3555.773073	388.669800	386.740509	100.660980
3555.777793	383.351257	382.473999	75.178802
3555.780647	381.188782	380.194641	63.840424
3555.783985	378.032745	376.804810	50.456451
3555.787348	374.935120	372.713623	37.890717
3555.790602	371.895966	368.096436	25.149628
3555.793928	369.032135	363.362366	12.817627
3555.797260	366.402100	358.043823	0.368774
3555.800610	363.012268	352.257751	-12.547668
3555.803513	359.739349	345.478088	-25.230286
3555.806832	355.940399	337.997070	-38.029846
3555.810184	352.725891	330.457642	-50.595581
3555.813513	348.342499	322.450592	-62.284607
3555.816884	344.251312	313.216248	-75.610168
3555.820164	339.926361	303.806519	-87.766785
3555.823092	335.192291	293.637054	-98.462280
3555.826404	330.867340	283.233765	-109.976074
3555.829745	325.315033	271.544708	-120.496216
3555.833075	320.639404	259.095856	-131.367065
3555.836408	315.028625	246.705414	-140.250732
3555.839737	309.242554	233.263000	-150.361816
3555.843073	303.573364	219.352997	-159.128601
3555.846402	297.495026	205.384552	-166.492737
3555.849730	290.773804	190.890121	-173.330811
3555.853068	283.409698	175.518982	-179.818237
3555.856402	277.272949	160.264755	-184.552368
3555.859740	270.142609	144.659851	-188.877258
3555.863066	263.421387	128.938049	-192.033325
3555.866406	256.407959	113.683807	-194.371155
3555.869738	249.160721	97.319107	-196.124512
3555.873066	241.679718	82.181763	-196.416748
3555.876405	234.958511	65.466393	-196.241394
3555.879739	227.711288	49.861481	-193.786682
3555.883064	220.990067	34.373459	-191.390442
3555.886399	215.437759	19.762123	-187.591492
3555.889732	209.300995	4.390999	-182.740540
3555.893066	202.930450	-9.343666	-177.246704
3555.896400	198.137924	-23.312103	-171.109863
3555.899738	192.877853	-37.280548	-163.921143
3555.903058	187.910004	-50.255402	-157.258362
3555.906399	184.227936	-62.821159	-148.783813
3555.909752	179.902985	-74.334892	-139.432495
3555.913065	176.805374	-86.257744	-130.139709
3555.916402	173.824677	-96.719460	-119.970215
3555.919729	170.902405	-107.239632	-110.268250
3555.923066	168.097015	-117.584450	-98.929871
3555.926397	166.811218	-127.344826	-87.708374
3555.929734	165.291641	-136.111633	-75.434814
3555.933064	164.473404	-144.352417	-63.687317
3555.937308	162.369370	-159.548218	-38.088318
3555.940622	161.843369	-165.977203	-25.347229
3555.943906	162.369370	-171.997070	-11.495667
3555.947247	162.953827	-178.075409	0.836304
3555.950612	162.836929	-183.569244	16.090576
3555.953926	163.772064	-188.420227	29.708313
3555.957307	164.356522	-192.686737	43.735199
3555.960172	165.466980	-195.842773	59.340118
3555.963492	166.460556	-199.407928	72.899475
3555.966819	168.038574	-202.388641	87.452362
3555.970188	169.149048	-204.726471	101.303894
3555.973488	170.843948	-206.362946	117.902374
3555.976818	172.363541	-207.414978	130.935699
3555.979724	173.883102	-208.174744	145.254822
3555.983075	174.935135	-209.343658	159.983032
3555.986387	176.454697	-208.700745	174.477478
3555.989721	178.383408	-208.233185	188.562805
3555.993056	180.136765	-206.772064	202.472778
3555.996398	182.065460	-206.012268	216.791931
3555.999723	183.643494	-204.375793	229.299225
3556.003053	185.805969	-203.089996	241.923401
3556.006385	187.559326	-200.693756	254.898285
3556.009747	189.312683	-198.355927	268.048492
3556.013051	192.001160	-195.082977	279.269989
3556.016381	193.812988	-192.862061	290.900635
3556.019722	195.917007	-189.413788	301.537659
3556.023051	198.079498	-186.316193	311.824066
3556.026417	200.651093	-183.335480	322.344238
3556.029716	202.755127	-179.478088	332.163025
3556.033048	205.268265	-176.848053	340.988281
3556.036381	207.722977	-172.756866	350.631775
3556.039723	210.002335	-169.308594	357.937439
3556.043050	212.106369	-166.035675	366.470459
3556.046388	214.970200	-162.879608	373.893005
3556.049716	217.366455	-159.372894	380.964905
3556.053051	220.464050	-156.041504	387.510803
3556.056374	222.626526	-152.359436	393.764465
3556.059714	224.730560	-149.554077	400.661011
3556.063048	226.717712	-145.755096	407.031555
3556.066378	230.165985	-142.715973	413.109863
3556.069731	232.737579	-139.033905	418.486816
3556.073047	235.192291	-135.994751	424.039124
3556.076377	237.237885	-132.312683	428.013428
3556.079716	239.575684	-128.981293	433.448853
3556.083051	241.913498	-125.883705	437.715332
3556.086383	244.309753	-122.669212	442.800110
3556.089715	246.472244	-119.980721	447.358826
3556.094347	251.323212	-113.668617	454.313843
3556.097259	252.901230	-110.278786	458.054321
3556.100596	255.180603	-107.590309	462.437744
3556.103990	256.758606	-104.726479	465.418457
3556.107287	258.628876	-101.453545	468.516052
3556.110621	261.025146	-98.122154	473.308563
3556.113927	262.486267	-94.790764	476.639954
3556.117222	264.181183	-91.810051	479.971344
3556.120136	266.343658	-88.887779	482.776733
3556.123462	267.746338	-86.199303	486.049652
3556.126796	269.441284	-82.575691	488.621246
3556.130131	270.551727	-79.536537	491.777313
3556.133486	272.655762	-77.257164	494.290466
3556.136828	273.824646	-74.510231	497.095825
3556.139703	275.110474	-71.412636	499.901215
3556.143083	276.571594	-69.074806	501.771454
3556.146374	277.623596	-66.152550	504.635284
3556.149701	279.493866	-63.464058	506.037964
3556.153035	280.253662	-60.834007	508.901794
3556.156396	281.422546	-58.437767	510.129150
3556.159699	282.123901	-55.983055	513.051392
3556.163039	283.059021	-54.288139	514.921692
3556.166373	284.461731	-51.774986	516.675049
3556.169705	286.039734	-49.261841	518.369934
3556.173040	286.331970	-47.157814	518.662170
3556.176373	287.617767	-45.170662	520.590881
3556.179709	288.143768	-42.540619	521.642883
3556.183039	289.488037	-41.137932	522.636475
3556.186394	290.598480	-39.384575	524.565125
3556.189702	291.358276	-38.098778	525.500244
3556.193032	292.585632	-36.228523	526.084717
3556.196366	293.520752	-35.001167	527.312073
3556.199697	294.105194	-33.481598	528.480957
3556.203039	295.332550	-31.845131	528.831665
3556.206365	295.683228	-30.091759	531.520142
3556.209707	296.443024	-28.922852	531.753906
3556.213035	297.728821	-28.338409	532.396851
3556.216365	298.780823	-26.935722	533.156616
3556.219705	299.189941	-25.591469	533.215088
3556.223032	299.540619	-24.481010	533.741089
3556.226369	300.183533	-23.487434	534.851501
3556.229731	300.767975	-22.143196	535.319092
3556.233032	301.527771	-21.324959	536.020447
3556.236364	302.053772	-19.279373	536.195801
3556.239693	303.222687	-18.811806	536.663330
3556.243046	303.514893	-17.818237	537.481567
3556.246365	304.274689	-16.707779	537.247803
3556.249695	304.683807	-15.480423	538.124451
3556.254403	305.677368	-12.908829	538.884277
3556.257300	306.495605	-12.499710	539.234924
3556.260627	306.378723	-11.506142	539.468689
3556.263877	307.430756	-10.278793	540.754517
3556.267212	307.664520	-9.518997	540.871399
3556.270547	307.898315	-8.466980	541.397400
3556.273937	308.015198	-7.531853	541.981873
3556.277234	309.008759	-6.421394	542.975464
3556.280132	309.359436	-5.661606	543.267639
3556.283462	309.826996	-4.726479	543.793640
3556.286821	309.710114	-4.083580	543.735229
3556.290114	310.002350	-2.797783	544.494995
3556.293448	310.411469	-1.921104	544.319702
3556.296792	310.294556	-1.453545	544.904114
3556.299698	310.937469	-0.693748	544.553467
3556.303025	311.463470	0.358269	544.436584
3556.306357	311.405029	0.533600	545.488586
3556.309689	312.398590	1.059608	545.605469
3556.313025	312.164825	1.877846	545.897705
3556.316379	312.223267	2.462296	545.780823
3556.319688	312.281708	3.163643	546.014587
3556.323023	312.223267	3.631203	546.014587
3556.326360	312.457031	4.332550	546.306824
3556.329690	312.807709	3.864990	546.189941
3556.333019	312.924622	4.624779	546.073059
3556.336356	313.567505	4.858559	546.832825
3556.339722	313.099945	5.033897	545.956177
3556.343023	313.509064	4.975449	545.780823
3556.346353	313.509064	5.209236	545.430115
3556.349691	313.742859	5.676796	545.488586
3556.353021	313.976624	5.443016	545.897705
3556.356353	313.976624	5.910576	546.891296
3556.359684	314.268860	5.852127	546.540588
3556.363020	314.619507	5.910576	546.599060
3556.366346	314.561066	5.969017	546.365234
3556.369682	314.677979	5.852127	546.482178
3556.373035	314.794861	6.319695	546.482178
3556.376350	314.853302	5.618347	546.073059
3556.379679	315.028625	6.085907	546.073059
3556.383019	314.911743	6.027466	546.248352
3556.386345	314.093506	6.495033	546.423706
3556.389681	314.502625	6.378136	546.482178
3556.393016	314.794861	6.144356	546.482178
3556.396350	314.736420	6.202797	546.891296
3556.399684	315.262421	6.553474	546.423706
3556.403075	315.320862	6.845703	546.949707
3556.407625	314.677979	7.313263	545.956177
3556.410979	314.853302	6.378136	546.715942
3556.413878	314.794861	7.254814	545.839233
3556.417220	314.210419	7.254814	546.189941
3556.420624	314.385742	6.904144	547.183472
3556.423923	314.327301	6.845703	547.358826
3556.427270	314.444183	7.137924	546.774414
3556.430522	314.035065	6.962593	546.365234
3556.433855	314.210419	7.313263	546.774414
3556.436775	313.801300	7.137924	546.657471
3556.440109	314.035065	6.962593	545.956177
3556.443437	314.035065	6.611923	546.540588
3556.446783	312.807709	6.436584	546.073059
3556.450128	312.807709	6.378136	546.365234
3556.453458	311.989471	5.852127	546.248352
3556.456349	312.281708	6.611923	546.073059
3556.459683	312.807709	5.676796	545.780823
3556.463010	312.515503	5.033897	546.306824
3556.466340	311.814148	4.917000	546.014587
3556.469678	311.638794	4.157219	545.371704
3556.473006	311.229706	3.689651	544.494995
3556.476346	310.820587	3.163643	544.962585
3556.479682	310.879028	2.637642	545.196350
3556.483009	310.002350	2.111626	545.430115
3556.486341	310.119232	1.819397	545.020996
3556.489684	309.593231	1.001160	544.144348
3556.493009	309.184113	0.007591	543.910583
3556.496339	309.067200	-0.635307	543.676758
3556.499674	309.184113	-1.219757	543.501465
3556.503005	308.774994	-2.505554	542.566345
3556.506330	307.547638	-2.564003	542.274109
3556.509677	307.606079	-3.791351	542.215637
3556.513007	306.787842	-4.317360	541.631165
3556.516335	306.729401	-4.901810	540.637634
3556.519665	306.729401	-5.252487	540.812927
3556.523007	305.735840	-6.362953	540.637634
3556.526340	305.677368	-7.590302	540.111633
3556.529668	305.092926	-8.583870	540.170044
3556.533026	304.508484	-8.934547	540.403809
3556.536334	303.690247	-9.343666	539.702515
3556.539668	303.631805	-10.746353	538.884277
3556.542998	302.930450	-12.207481	539.059570
3556.546336	302.404449	-12.908829	538.592041
3556.549669	302.170654	-13.434837	537.949158
3556.553001	301.177094	-14.253075	537.715332
3556.556331	300.592651	-14.720634	537.423096
3556.559667	299.248383	-16.473991	536.546448
3556.562996	298.780823	-17.175339	536.078857
3556.567717	297.611938	-18.987144	535.669739
3556.570632	296.092346	-20.039162	534.734619
3556.573927	295.507904	-21.032730	535.026855
3556.577213	295.215668	-22.143196	533.390381
3556.580516	294.689667	-22.727646	533.331970
3556.583841	293.286987	-24.188782	533.156616
3556.587198	292.293396	-26.000595	532.221497
3556.590551	291.416718	-27.286385	531.520142
3556.593435	291.007599	-28.689072	531.461670
3556.596765	289.078918	-29.624199	529.123901
3556.600134	288.611328	-31.085335	527.136719
3556.603424	286.624207	-33.072472	526.318481
3556.606748	285.922852	-35.585625	525.617187
3556.610092	285.221497	-36.637642	523.688477
3556.612998	283.935699	-38.449455	523.571594
3556.616326	282.708374	-39.443016	521.876648
3556.619671	281.071899	-42.189957	520.824646
3556.622994	280.136780	-44.060204	519.480408
3556.626322	278.383423	-46.690247	518.428406
3556.629659	277.331390	-49.203392	516.733459
3556.632993	275.636475	-51.190529	514.980103
3556.636327	274.935120	-53.353004	512.700745
3556.639656	273.357117	-55.281715	511.707184
3556.642996	272.071289	-57.619530	509.369354
3556.646324	270.142609	-60.074226	506.856201
3556.649710	268.739929	-62.470497	505.628845
3556.652995	267.045013	-64.983635	503.349487
3556.656354	265.466980	-67.087669	500.193420
3556.659651	264.181183	-69.659264	499.024536
3556.662997	262.720062	-72.464638	496.102264
3556.666328	260.966675	-74.744011	493.589111
3556.669659	259.271790	-76.438927	491.485077
3556.672989	257.518433	-80.296318	488.796600
3556.676326	255.355927	-82.341911	486.049652
3556.679655	252.901230	-84.679726	482.952057
3556.682984	251.089417	-87.309761	481.257141
3556.686317	249.219177	-90.173592	478.334869
3556.689651	246.706024	-92.569847	474.652802
3556.692982	244.660431	-94.966103	472.081207
3556.696322	242.030396	-97.479256	468.340729
3556.699681	240.043243	-99.817070	465.243103
3556.702982	237.179428	-102.388664	461.210388
3556.706314	234.724731	-105.486275	456.885437
3556.709650	232.211578	-107.999413	452.852692
3556.713029	229.464630	-110.161903	448.936859
3556.716315	226.893036	-113.084160	444.378113
3556.719656	223.386322	-116.298668	440.345398
3556.724293	217.834015	-121.091179	430.000549
3556.727601	214.677963	-123.896553	424.272919
3556.730527	212.281708	-126.877266	419.363525
3556.733846	208.482758	-129.448853	413.869659
3556.737231	205.443604	-132.955597	407.674438
3556.740576	203.398010	-136.228516	400.777893
3556.743869	199.599060	-138.916992	393.998230
3556.747170	196.443024	-141.839264	386.926331
3556.750082	193.403854	-144.527740	380.263550
3556.753403	189.721802	-147.742249	372.022766
3556.756739	186.857971	-151.073639	363.197510
3556.760065	183.059021	-153.645233	355.307404
3556.763407	180.019867	-156.392181	346.715942
3556.766770	176.922272	-159.022217	337.598450
3556.769647	173.590897	-161.652252	328.071869
3556.772981	170.317947	-163.931610	318.077698
3556.776329	167.220352	-165.509644	307.908203
3556.779642	163.246063	-167.613678	297.446503
3556.782978	160.090012	-170.009918	287.277039
3556.786343	156.291061	-171.821747	275.938599
3556.789646	152.842789	-173.516663	265.243103
3556.792981	149.862076	-174.627136	253.203369
3556.796312	147.056702	-175.854492	241.631195
3556.799642	143.725296	-176.205139	230.760345
3556.802978	140.393921	-176.146698	218.662170
3556.806307	136.770325	-176.438934	206.388641
3556.809640	133.029816	-176.380463	193.939789
3556.812969	130.282883	-175.679138	182.309174
3556.816307	127.126846	-174.451782	169.042084
3556.819637	123.795441	-173.282867	156.710083
3556.822975	120.522507	-171.412628	143.968994
3556.826302	118.126251	-169.367035	131.227905
3556.829665	114.853317	-165.918762	119.597290
3556.832970	112.340149	-163.230286	106.914642
3556.836306	109.768555	-159.139099	94.524231
3556.839635	107.489182	-155.983063	82.718262
3556.843003	105.326706	-150.898285	70.269440
3556.846310	103.339584	-145.638245	58.171204
3556.849637	101.177094	-140.495026	45.839233
3556.852975	100.066635	-134.475159	33.974884
3556.856305	98.313263	-127.812401	21.292206
3556.859633	96.969040	-120.156044	10.713623
3556.862971	95.741684	-112.967278	-0.800171
3556.866298	95.800110	-105.018715	-11.904724
3556.869635	95.332550	-96.135002	-22.600220
3556.873002	95.098785	-87.309761	-33.646423
3556.876299	95.215652	-77.490944	-43.173035
3556.879635	96.443008	-66.970772	-53.459412
3556.884308	99.599075	-45.287560	-72.804810
3556.887222	101.644669	-33.423149	-81.513184
3556.890547	104.391571	-21.324959	-89.753967
3556.893829	107.606079	-8.583870	-97.001160
3556.897172	110.353027	4.683220	-103.371704
3556.900480	114.385757	17.833424	-109.683838
3556.903831	118.886047	31.743420	-114.943909
3556.907159	123.152542	45.185852	-119.911804
3556.910068	128.587967	59.388073	-123.126282
3556.913408	133.555817	73.882523	-125.873169
3556.916777	138.465210	88.961426	-128.737061
3556.920048	144.894226	103.163643	-129.789001
3556.923390	150.446518	118.710114	-130.431946
3556.926720	156.466385	132.327881	-129.905884
3556.929628	163.713623	147.640564	-127.860291
3556.932962	169.791946	161.842773	-125.347229
3556.936293	176.454697	176.045013	-122.483337
3556.939625	182.416138	190.071884	-118.158386
3556.942959	189.312683	204.449432	-113.307434
3556.946298	195.332550	217.073639	-107.696716
3556.949624	201.293991	229.990082	-100.975464
3556.952963	208.015198	242.614258	-94.780273
3556.956289	214.444183	255.238464	-86.831665
3556.959647	220.347168	266.343079	-79.584473
3556.962957	226.074814	277.389252	-70.466980
3556.966343	232.153137	287.675629	-61.349487
3556.969632	237.530106	298.604919	-52.991821
3556.972956	242.848633	308.482147	-42.004150
3556.976293	248.342499	316.898315	-32.302185
3556.979629	253.894806	326.015778	-21.898926
3556.982957	258.862671	333.087677	-11.261841
3556.986285	263.772064	340.685577	-0.916992
3556.989626	269.265930	348.225006	10.772034
3556.992950	274.526001	354.537140	22.168915
3556.996293	279.493866	360.498535	32.396820
3556.999619	284.111053	365.758636	44.611908
3557.002958	289.195801	370.434265	56.300964
3557.006291	294.748108	374.934540	68.457581
3557.009626	298.956177	379.259521	79.562225
3557.012952	303.164246	383.116882	91.192841
3557.016285	308.248962	386.272949	102.297485
3557.019617	313.275269	388.902985	113.986511
3557.022951	317.600250	390.890106	124.682037
3557.026281	322.158966	393.111053	135.845093
3557.029680	326.659271	394.630615	147.300385
3557.032970	330.516663	395.682648	158.697235
3557.036281	334.900055	396.500885	169.860291
3557.039617	339.166565	396.968445	180.672668
3557.044252	345.595551	396.208679	202.355927
3557.047581	351.323212	395.799530	212.700745
3557.050484	354.070129	394.221527	222.110443
3557.053819	357.693756	393.227936	231.637024
3557.057272	360.323792	391.766815	242.566315
3557.060539	363.362946	389.954987	251.683807
3557.063815	366.343658	387.675629	261.502625
3557.067134	368.623016	385.513153	270.152527
3557.070030	370.493286	383.058441	279.386902
3557.073369	372.714203	380.720642	287.744568
3557.076710	374.584473	377.973694	296.219147
3557.080034	376.337830	375.109894	304.167725
3557.083385	377.915833	372.246033	311.590271
3557.086720	379.084747	369.148468	319.538849
3557.089613	379.552307	365.875488	326.669189
3557.092945	381.130341	362.836365	334.442413
3557.096286	381.831665	359.855652	341.222076
3557.099649	382.533020	356.465820	347.534180
3557.102941	382.416138	353.134430	354.138489
3557.106302	383.351257	350.153717	360.801270
3557.109612	383.818817	346.647003	366.412018
3557.112941	384.052612	343.549377	372.022766
3557.116273	384.695496	340.101135	377.399750
3557.119609	384.520172	336.535950	382.250732
3557.122947	384.870850	333.555237	387.744568
3557.126273	385.279968	329.990082	393.179993
3557.129609	384.929291	326.775574	398.147827
