time (s)	det(V)
3287.427282	0.321271	
3287.428778	0.613211	
3287.430399	0.879676	
3287.431900	1.187251	
3287.433463	1.419286	
3287.434999	1.606405	
3287.436513	1.626096	
3287.438130	1.626023	
3287.439718	1.626031	
3287.441340	1.626120	
3287.442894	1.626221	
3287.444535	1.626104	
3287.446031	1.626193	
3287.447732	1.625979	
3287.449209	1.626140	
3287.450927	1.626048	
3287.452398	1.626173	
3287.454099	1.626108	
3287.455583	1.626221	
3287.457309	1.626209	
3287.458790	1.626172	
3287.460567	1.626273	
3287.462044	1.626136	
3287.463828	1.626193	
3287.465309	1.626140	
3287.467076	1.626144	
3287.468576	1.626104	
3287.470330	1.626193	
3287.471836	1.626181	
3287.473591	1.626233	
3287.475111	1.626237	
3287.476850	1.626362	
3287.478377	1.626160	
3287.480096	1.626237	
3287.481637	1.626217	
3287.483349	1.626342	
3287.484908	1.626241	
3287.486600	1.626334	
3287.488176	1.626205	
3287.489851	1.626317	
3287.491429	1.626193	
3287.493080	1.626313	
3287.494672	1.626257	
3287.496317	1.626205	
3287.497929	1.626269	
3287.499559	1.626302	
3287.501191	1.626184	
3287.502801	1.626378	
3287.504486	1.626092	
3287.506095	1.626322	
3287.507732	1.626173	
3287.509322	1.626265	
3287.511009	1.626245	
3287.512579	1.626325	
3287.514279	1.626168	
3287.515829	1.626261	
3287.517554	1.626249	
3287.519118	1.626438	
3287.520829	1.626245	
3287.522394	1.626193	
3287.524105	1.626346	
3287.525613	1.626305	
3287.527368	1.626285	
3287.528854	1.626136	
3287.530624	1.626241	
3287.532104	1.626108	
3287.533884	1.626309	
3287.535368	1.626168	
3287.537168	1.626293	
3287.538646	1.626237	
3287.540423	1.626221	
3287.541914	1.626193	
3287.543669	1.626213	
3287.545173	1.626144	
3287.546901	1.626132	
3287.548421	1.626120	
3287.550151	1.626116	
3287.551685	1.626148	
3287.553398	1.626229	
3287.554949	1.626068	
3287.556648	1.626225	
3287.558204	1.626132	
3287.559886	1.626241	
3287.561449	1.626068	
3287.563114	1.626136	
3287.564708	1.626144	
3287.566352	1.626293	
3287.567961	1.625991	
3287.569603	1.626217	
3287.571215	1.626088	
3287.572741	1.626120	
3287.574360	1.626048	
3287.575859	1.626100	
3287.577503	1.626108	
3287.578983	1.626023	
3287.580631	1.626184	
3287.582108	1.626092	
3287.583744	1.625959	
3287.585234	1.625979	
3287.586838	1.625975	
3287.588375	1.626080	
3287.589920	1.626036	
3287.591558	1.626032	
3287.593043	1.626019	
3287.594684	1.625882	
3287.596231	1.626036	
3287.597880	1.625898	
3287.599378	1.626096	
3287.601089	1.625480	
3287.602562	1.625915	
3287.604277	1.623397	
3287.605749	1.624384	
3287.607458	1.579678	
3287.608944	1.499260	
3287.610665	1.438525	
3287.612161	1.389887	
3287.613867	1.318630	
3287.615352	1.288076	
3287.617128	1.222309	
3287.618611	1.195650	
3287.620345	1.125166	
3287.621858	1.105238	
3287.623590	1.039242	
3287.625119	1.034742	
3287.626870	0.972662	
3287.628390	0.941741	
3287.630090	0.861017	
3287.631634	0.850060	
3287.633348	0.788822	
3287.634901	0.763109	
3287.636583	0.704880	
3287.638150	0.678252	
3287.639812	0.648680	
3287.641417	0.617831	
3287.643083	0.577967	
3287.644677	0.554176	
3287.646336	0.497622	
3287.647931	0.495576	
3287.649587	0.455293	
3287.651225	0.477094	
3287.652839	0.401253	
3287.654503	0.396524	
3287.656102	0.360434	
3287.657736	0.340184	
3287.659323	0.316010	
3287.660990	0.313778	
3287.662562	0.271597	
3287.664261	0.242650	
3287.665815	0.226468	
3287.667507	0.226871	
3287.669049	0.171522	
3287.670746	0.183103	
3287.672252	0.169471	
3287.674021	0.138937	
3287.675516	0.151038	
3287.677311	0.134050	
3287.678789	0.098428	
3287.680575	0.095387	
3287.682053	0.082319	
3287.683844	0.050499	
3287.685330	0.075205	
3287.687123	0.050833	
3287.688613	0.049516	
3287.690408	0.054270	
3287.691894	0.016218	
3287.693672	0.003754	
3287.695173	0.037935	
3287.696916	0.002812	
3287.698430	0.017112	
3287.700163	-0.007033	
3287.701694	-0.014325	
3287.703391	-0.031207	
3287.704932	0.009555	
3287.706623	-0.020617	
3287.708181	-0.011106	
3287.709845	-0.029068	
3287.711407	-0.016585	
3287.713080	-0.044058	
3287.714674	-0.024726	
3287.716306	-0.026776	
3287.717931	-0.014498	
3287.719570	-0.054854	
3287.721194	-0.030494	
3287.722807	-0.028110	
3287.724442	-0.022269	
3287.725932	-0.031022	
3287.727496	-0.017036	
3287.728994	-0.020045	
3287.730619	-0.024480	
3287.732105	-0.001881	
3287.733738	-0.026124	
3287.735237	-0.015126	
3287.736820	-0.042334	
3287.738372	0.001023	
3287.739921	-0.003166	
3287.741521	0.005281	
3287.743013	-0.028968	
3287.744629	0.021004	
3287.746163	-0.002743	
3287.747836	-0.005527	
3287.749315	-0.012182	
3287.751030	0.006111	
3287.752507	0.002618	
3287.754222	-0.017157	
3287.755700	0.022575	
3287.757428	0.022164	
3287.758904	-0.006494	
3287.760601	0.035441	
3287.762092	0.031727	
3287.763803	-0.017656	
3287.765302	0.004194	
3287.766983	-0.009954	
3287.768495	0.014941	
3287.770152	-0.016089	
3287.771671	0.012468	
3287.773399	0.010127	
3287.774939	0.015545	
3287.776615	-0.017676	
3287.778175	0.033991	
3287.779867	-0.018933	
3287.781450	-0.011356	
3287.783131	-0.002735	
3287.784713	0.021983	
3287.786379	-0.040980	
3287.787973	-0.013668	
3287.789613	-0.007932	
3287.791223	0.044195	
3287.792861	-0.019276	
3287.794497	0.002812	
3287.796093	-0.018812	
3287.797737	-0.021668	
3287.799345	-0.023070	
3287.801010	-0.020532	
3287.802597	-0.045528	
3287.804285	-0.023908	
3287.805853	-0.027606	
3287.807554	-0.003456	
3287.809097	-0.027856	
3287.810792	-0.000024	
3287.812330	-0.021205	
3287.814039	-0.037653	
3287.815543	-0.037125	
3287.817332	-0.025060	
3287.818812	-0.028577	
3287.820577	-0.024492	
3287.822059	-0.032637	
3287.823847	-0.025052	
3287.825326	-0.031179	
3287.827072	-0.033048	
3287.828565	-0.020130	
3287.830318	-0.054290	
3287.831824	-0.052344	
3287.833570	-0.039751	
3287.835079	-0.043707	
3287.836804	-0.034744	
3287.838333	-0.049536	
3287.840045	0.001982	
3287.841593	-0.021205	
3287.843277	-0.046056	
3287.844854	0.003315	
3287.846522	-0.046225	
3287.848098	-0.031167	
3287.849763	-0.050709	
3287.851347	-0.044706	
3287.853001	-0.046600	
3287.854595	-0.018446	
3287.856220	-0.027981	
3287.857841	-0.020287	
3287.859443	-0.032875	
3287.861128	-0.024081	
3287.862731	-0.028488	
3287.864378	-0.022430	
3287.865982	-0.040783	
3287.867677	-0.010482	
3287.869246	-0.023743	
3287.870946	-0.024138	
3287.872498	-0.027058	
3287.874199	0.021898	
3287.875754	-0.019348	
3287.877455	-0.006808	
3287.879004	0.007807	
3287.880725	-0.014550	
3287.882235	0.010244	
3287.884019	0.013245	
3287.885506	-0.007231	
3287.887061	-0.000955	
3287.888572	0.032150	
3287.890174	0.013870	
3287.891721	0.043369	
3287.893274	0.012427	
3287.894886	0.038285	
3287.896372	0.001938	
3287.898037	0.013314	
3287.899525	0.012770	
3287.901172	0.025374	
3287.902700	0.009378	
3287.904343	0.018212	
3287.905820	0.031485	
3287.907451	0.043780	
3287.908941	0.037753	
3287.910568	0.049919	
3287.912053	0.032891	
3287.913743	0.015336	
3287.915233	0.000914	
3287.916896	0.021636	
3287.918419	0.038724	
3287.920073	0.012492	
3287.921614	0.033246	
3287.923243	0.023844	
3287.924805	0.035300	
3287.926406	0.028682	
3287.928008	0.037814	
3287.929666	0.024508	
3287.931288	0.038918	
3287.932920	-0.000564	
3287.934540	0.015650	
3287.936166	0.009088	
3287.937799	0.032488	
3287.939402	0.031348	
3287.941047	0.029294	
3287.942650	0.015916	
3287.944332	0.065505	
3287.945905	0.035594	
3287.947615	0.045911	
3287.949177	0.006393	
3287.950874	0.009318	
3287.952441	0.009821	
3287.954143	0.031103	
3287.955691	0.024508	
3287.957414	0.033729	
3287.958944	0.015001	
3287.960695	0.044324	
3287.962194	0.020689	
3287.963970	0.029644	
3287.965455	0.004770	
3287.967217	0.012230	
3287.968703	0.021999	
3287.970517	-0.003944	
3287.971994	0.011968	
3287.973781	0.022264	
3287.975269	0.024303	
3287.977046	0.032045	
3287.978537	0.007912	
3287.980292	0.006768	
3287.981803	0.027316	
3287.983534	0.026526	
3287.985060	0.025511	
3287.986798	-0.001623	
3287.988327	0.033004	
3287.990020	0.010715	
3287.991576	0.061098	
3287.993277	0.022095	
3287.994841	0.032851	
3287.996520	-0.003557	
3287.998096	0.024621	
3287.999763	0.010731	
3288.001336	0.057279	
3288.002987	0.016677	
3288.004580	0.050233	
3288.006224	0.034768	
3288.007854	0.044513	
3288.009476	0.038225	
3288.011147	0.075160	
3288.012731	0.041456	
3288.014388	0.046032	
3288.015980	0.017020	
3288.017642	0.038418	
3288.019234	0.044283	
3288.020926	0.055885	
3288.022490	0.060449	
3288.024204	0.060892	
3288.025750	0.044444	
3288.027455	0.067885	
3288.029020	0.078653	
3288.030718	0.083652	
3288.032247	0.044839	
3288.033994	0.074008	
3288.035473	0.070516	
3288.037245	0.060155	
3288.038722	0.066262	
3288.040522	0.065714	
3288.042009	0.079438	
3288.043771	0.064207	
3288.045285	0.105671	
3288.046776	0.091644	
3288.048343	0.074536	
3288.049885	0.057202	
3288.051494	0.093755	
3288.052989	0.070141	
3288.054648	0.085473	
3288.056158	0.100829	
3288.057823	0.075616	
3288.059325	0.084482	
3288.060950	0.112080	
3288.062446	0.102855	
3288.064088	0.055442	
3288.065578	0.089948	
3288.067219	0.068155	
3288.068705	0.079378	
3288.070424	0.071692	
3288.071897	0.080675	
3288.073591	0.090794	
3288.075091	0.090190	
3288.076754	0.071474	
3288.078295	0.118420	
3288.079912	0.081855	
3288.081479	0.080828	
3288.083065	0.055716	
3288.084676	0.088550	
3288.086227	0.050483	
3288.087850	0.074165	
3288.089484	0.070987	
3288.091100	0.071789	
3288.092709	0.066338	
3288.094383	0.086569	
3288.095948	0.071124	
3288.097629	0.063720	
3288.099194	0.053033	
3288.100900	0.069098	
3288.102463	0.048489	
3288.104145	0.040469	
3288.105703	0.052018	
3288.107423	0.060046	
3288.108972	0.052908	
3288.110702	0.049278	
3288.112213	0.032440	
3288.113954	0.035776	
3288.115430	0.025685	
3288.117210	0.042648	
3288.118702	0.035997	
3288.120478	0.029628	
3288.121969	0.038664	
3288.123752	0.029048	
3288.125230	0.042434	
3288.127016	0.036686	
3288.128513	0.052481	
3288.130272	-0.004983	
3288.131776	0.036239	
3288.133507	0.011038	
3288.135042	-0.007585	
3288.136776	0.012713	
3288.138311	0.052038	
3288.140013	0.021366	
3288.141555	0.028009	
3288.143241	0.013596	
3288.144802	0.045290	
3288.146488	0.017423	
3288.148054	0.013020	
3288.149693	-0.007754	
3288.151289	0.024243	
3288.152935	-0.006510	
3288.154531	0.020959	
3288.156161	0.041077	
3288.157797	0.032424	
3288.159405	-0.006369	
3288.161074	0.046056	
3288.162666	0.033266	
3288.164338	0.033532	
3288.165931	0.011243	
3288.167600	0.017571	
3288.169175	-0.003702	
3288.170860	0.010772	
3288.172416	0.039768	
3288.174125	0.036968	
3288.175679	-0.001623	
3288.177382	0.014611	
3288.178913	0.006812	
3288.180649	0.030881	
3288.182133	0.002066	
3288.183916	-0.002876	
3288.185401	-0.011207	
3288.187191	-0.033959	
3288.188671	-0.032710	
3288.190467	-0.037210	
3288.191948	-0.009676	
3288.193719	-0.046181	
3288.195209	-0.014429	
3288.196961	-0.072292	
3288.198476	-0.080691	
3288.200230	-0.089892	
3288.201761	-0.087564	
3288.203256	-0.133055	
3288.204859	-0.123935	
3288.206355	-0.129933	
3288.208006	-0.157173	
3288.209505	-0.192977	
3288.211126	-0.171981	
3288.212653	-0.191325	
3288.214295	-0.241901	
3288.215784	-0.289270	
3288.217436	-0.267545	
3288.218917	-0.305576	
3288.220547	-0.349537	
3288.222029	-0.351713	
3288.223674	-0.389216	
3288.225177	-0.411473	
3288.226755	-0.442459	
3288.228294	-0.459398	
3288.229912	-0.533821	
3288.231489	-0.557153	
3288.233078	-0.595696	
3288.234681	-0.645417	
3288.236238	-0.705137	
3288.237853	-0.718290	
3288.239358	-0.763387	
3288.241049	-0.837588	
3288.242526	-0.878041	
3288.244236	-0.894211	
3288.245715	-0.987019	
3288.247436	-1.071851	
3288.248989	-1.129960	
3288.250700	-1.178344	
3288.252201	-1.258665	
3288.253955	-1.299278	
3288.255434	-1.370652	
3288.257205	-1.439593	
3288.258689	-1.529215	
3288.260474	-1.603566	
3288.261970	-1.625379	
3288.263759	-1.627776	
3288.265239	-1.628074	
3288.267017	-1.627844	
3288.268507	-1.628070	
3288.270265	-1.627937	
3288.271771	-1.627985	
3288.273511	-1.627905	
3288.275030	-1.627925	
3288.276777	-1.627969	
3288.278303	-1.628017	
3288.280022	-1.627937	
3288.281571	-1.628110	
3288.283271	-1.628098	
3288.284826	-1.628070	
3288.286511	-1.627925	
3288.288076	-1.628142	
3288.289736	-1.627977	
3288.291334	-1.628114	
3288.292982	-1.628013	
3288.294573	-1.628090	
3288.296216	-1.627941	
3288.297823	-1.628170	
3288.299464	-1.627925	
3288.301106	-1.628050	
3288.302692	-1.628054	
3288.304364	-1.628207	
3288.305941	-1.628050	
3288.307620	-1.628078	
3288.309214	-1.628098	
3288.310884	-1.628058	
3288.312448	-1.628203	
3288.314156	-1.628183	
3288.315692	-1.628219	
3288.317402	-1.628126	
3288.318931	-1.628126	
3288.320662	-1.628175	
3288.322167	-1.628170	
3288.323925	-1.628179	
3288.325422	-1.628122	
3288.327217	-1.628114	
3288.328693	-1.628211	
3288.330476	-1.628328	
3288.331959	-1.628191	
3288.333739	-1.628267	
3288.335217	-1.628279	
3288.336973	-1.628235	
3288.338470	-1.628215	
3288.340206	-1.628312	
3288.341732	-1.628203	
3288.343483	-1.628332	
3288.345012	-1.628320	
3288.346732	-1.628408	
3288.348264	-1.628271	
3288.349976	-1.628271	
3288.351527	-1.628412	
3288.353228	-1.628428	
3288.354798	-1.628477	
3288.356505	-1.628295	
3288.358064	-1.628489	
3288.359722	-1.628573	
3288.361331	-1.628473	
3288.362831	-1.628465	
3288.364465	-1.628412	
3288.365982	-1.628360	
3288.367627	-1.628590	
3288.369101	-1.628501	
3288.370733	-1.628622	
3288.372218	-1.628549	
3288.373853	-1.628606	
3288.375359	-1.628610	
3288.376975	-1.628561	
3288.378480	-1.628614	
3288.380059	-1.628553	
3288.381609	-1.628533	
3288.383126	-1.628553	
3288.384727	-1.628565	
3288.386298	-1.628513	
3288.387922	-1.628428	
3288.389461	-1.628324	
3288.391118	-1.628436	
3288.392612	-1.628303	
3288.394315	-1.628444	
3288.395790	-1.628191	
3288.397501	-1.628461	
3288.398981	-1.628235	
3288.400700	-1.628388	
3288.402198	-1.628227	
3288.403916	-1.628247	
3288.405396	-1.628142	
3288.407104	-1.628227	
3288.408586	-1.628255	
3288.410356	-1.628243	
3288.411846	-1.628154	
3288.413608	-1.628142	
3288.415116	-1.628150	
3288.416876	-1.628199	
3288.418388	-1.628098	
3288.420130	-1.627941	
3288.421661	-1.628021	
3288.423394	-1.628122	
3288.424930	-1.628158	
3288.426629	-1.627977	
3288.428171	-1.628122	
3288.429866	-1.627852	
3288.431443	-1.628009	
3288.433134	-1.627735	
3288.434706	-1.562501	
3288.436378	-1.284539	
3288.437950	-0.980711	
3288.439623	-0.671992	
3288.441236	-0.385482	
3288.442872	-0.120459	
3288.444495	0.201722	
3288.446146	0.474697	
3288.447763	0.750887	
3288.449398	1.020905	
3288.451050	1.300418	
3288.452650	1.556350	
3288.454332	1.625532	
3288.455904	1.626197	
3288.457597	1.625931	
3288.459172	1.626205	
3288.460864	1.626112	
3288.462446	1.626197	
3288.464151	1.626068	
3288.465707	1.626241	
3288.467426	1.626104	
3288.468971	1.626144	
3288.470696	1.626160	
3288.472211	1.626148	
3288.473962	1.626144	
3288.475451	1.626237	
3288.477238	1.626209	
3288.478728	1.626140	
3288.480510	1.626124	
3288.481995	1.626164	
3288.483773	1.626168	
3288.485256	1.626221	
3288.487029	1.626213	
3288.488516	1.626245	
3288.490279	1.626140	
3288.491791	1.626217	
3288.493538	1.626257	
3288.495057	1.626193	
3288.496772	1.626205	
3288.498292	1.626205	
3288.499993	1.626229	
3288.501532	1.626189	
3288.503226	1.626321	
3288.504779	1.626148	
3288.506478	1.626378	
3288.508063	1.626148	
3288.509733	1.626410	
3288.511322	1.626201	
3288.512977	1.626217	
3288.514566	1.626201	
3288.516208	1.626350	
3288.517824	1.626253	
3288.519434	1.626326	
3288.521093	1.626181	
3288.522580	1.626164	
3288.524219	1.626108	
3288.525696	1.626289	
3288.527346	1.626269	
3288.528836	1.626120	
3288.530464	1.626318	
3288.531969	1.626140	
3288.533576	1.626293	
3288.535107	1.626193	
3288.536670	1.626205	
3288.538209	1.626281	
3288.539707	1.626330	
3288.541375	1.626269	
3288.542870	1.626245	
3288.544505	1.626209	
3288.546051	1.626293	
3288.547734	1.626181	
3288.549224	1.626225	
3288.550936	1.626229	
3288.552410	1.626201	
3288.554147	1.626176	
3288.555617	1.626096	
3288.557312	1.626124	
3288.558796	1.626124	
3288.560495	1.626229	
3288.561981	1.626164	
3288.563686	1.626185	
3288.565169	1.626104	
3288.566845	1.626031	
3288.568364	1.626128	
3288.570112	1.626128	
3288.571635	1.626092	
3288.573351	1.626205	
3288.574893	1.626096	
3288.576601	1.626193	
3288.578158	1.626084	
3288.579842	1.626161	
3288.581405	1.626136	
3288.583103	1.626176	
3288.584676	1.626064	
3288.586335	1.626241	
3288.587912	1.626164	
3288.589558	1.626116	
3288.591160	1.625999	
3288.592789	1.626269	
3288.594425	1.626185	
3288.596025	1.626265	
3288.597706	1.626027	
3288.599312	1.626120	
3288.600967	1.626023	
3288.602572	1.626161	
3288.604256	1.626019	
3288.605823	1.626249	
3288.607517	1.626072	
3288.609064	1.626092	
3288.610758	1.625886	
3288.612328	1.626092	
3288.614006	1.625778	
3288.615528	1.625983	
3288.617266	1.625850	
3288.618754	1.625979	
3288.620531	1.623546	
3288.622010	1.608694	
3288.623793	1.538049	
3288.625272	1.502277	
3288.627031	1.412547	
3288.628511	1.365685	
3288.630276	1.323094	
3288.631785	1.287238	
3288.633546	1.213495	
3288.635060	1.185792	
3288.636782	1.120453	
3288.638312	1.106443	
3288.640008	1.036036	
3288.641540	1.014605	
3288.643226	0.953987	
3288.644772	0.957016	
3288.646448	0.856864	
3288.648031	0.841021	
3288.649715	0.767887	
3288.651297	0.767822	
3288.652953	0.702688	
3288.654543	0.693604	
3288.656200	0.650469	
3288.657819	0.633989	
3288.659423	0.577621	
3288.661080	0.601211	
3288.662676	0.526034	
3288.664332	0.512225	
3288.665944	0.444904	
3288.667599	0.445017	
3288.669199	0.388632	
3288.670894	0.376289	
3288.672466	0.344808	
3288.674176	0.352309	
3288.675727	0.312549	
3288.677433	0.314354	
3288.678982	0.286820	
3288.680668	0.255682	
3288.682165	0.244680	
3288.683715	0.205819	
3288.685221	0.217135	
3288.686807	0.151521	
3288.688331	0.189963	
3288.689883	0.172972	
3288.691466	0.144722	
3288.692962	0.126284	
3288.694627	0.136725	
3288.696122	0.097542	
3288.697755	0.069033	
3288.699284	0.077501	
3288.700913	0.084152	
3288.702398	0.050052	
3288.704032	0.032122	
3288.705513	0.052364	
3288.707238	0.041459	
3288.708720	0.047047	
3288.710416	0.051099	
3288.711896	0.024424	
3288.713576	-0.029999	
3288.715078	-0.022937	
3288.716749	-0.040110	
3288.718283	-0.016520	
3288.719916	-0.046571	
3288.721484	0.001809	
3288.723073	-0.048489	
3288.724659	-0.018003	
3288.726321	-0.060687	
3288.727917	-0.028194	
3288.729571	-0.046765	
3288.731166	-0.049089	
3288.732790	-0.071507	
3288.734422	-0.055780	
3288.736016	-0.073247	
3288.737707	-0.054447	
3288.739306	-0.047389	
3288.740951	-0.066262	
3288.742550	-0.061657	
3288.744226	-0.047873	
3288.745799	-0.060501	
3288.747501	-0.028359	
3288.749055	-0.065738	
3288.750760	-0.045057	
3288.752314	-0.053545	
3288.754015	-0.046531	
3288.755553	-0.041371	
3288.757266	-0.014885	
3288.758775	-0.044304	
3288.760559	-0.040050	
3288.762044	-0.023118	
3288.763826	-0.050116	
3288.765311	-0.048179	
3288.767113	-0.050664	
3288.768590	-0.050370	
3288.770361	-0.045206	
3288.771852	-0.005156	
3288.773646	-0.028186	
3288.775138	-0.023308	
3288.776905	-0.027542	
3288.778406	0.002288	
3288.780163	-0.024722	
3288.781684	-0.010792	
3288.783406	-0.018518	
3288.784930	0.003404	
3288.786675	-0.022059	
3288.788216	-0.021745	
3288.789923	-0.020754	
3288.791469	0.000141	
3288.793164	-0.030921	
3288.794737	0.008504	
3288.796398	-0.005813	
3288.797976	-0.010196	
3288.799630	-0.030386	
3288.801235	0.010639	
3288.802910	-0.047103	
3288.804507	-0.010385	
