time (s)	magX	magY	magZ
3287.428401	115.740509	64.784332	1000.133850
3287.431775	126.026886	44.737579	1002.179443
3287.435085	136.605499	25.742844	1003.523682
3287.438000	146.482758	6.631210	1002.939270
3287.441328	156.301575	-13.298656	1001.594971
3287.444659	166.704849	-31.416716	997.503784
3287.447971	176.289886	-49.885448	992.419067
3287.451336	186.108704	-67.419052	985.873169
3287.454638	195.576859	-85.303329	978.625977
3287.457549	205.571014	-102.252487	970.209839
3287.460877	214.279358	-118.441849	958.228516
3287.464207	223.747513	-135.507889	945.253662
3287.467546	232.689651	-150.820572	930.993042
3287.470874	241.164215	-165.665680	916.615417
3287.474211	249.346573	-179.458801	900.659851
3287.477540	256.710693	-193.368774	882.775513
3287.480880	263.899475	-206.343658	863.430176
3287.484211	270.562225	-217.915833	842.448242
3287.487544	275.354767	-229.838699	822.576843
3287.490877	280.614838	-240.183502	801.244263
3287.494225	285.173584	-249.710098	778.684387
3287.497534	288.037415	-258.476929	755.481628
3287.500876	291.719452	-266.367035	732.804810
3287.504235	293.239044	-273.906494	709.192871
3287.507535	294.758636	-280.160126	685.756287
3287.510877	296.044403	-286.179993	661.735229
3287.514205	296.453522	-291.673859	637.714233
3287.517542	296.102875	-295.706604	613.459351
3287.520876	294.291077	-298.745758	590.022766
3287.524202	292.303925	-301.668030	568.339539
3287.527538	290.725891	-304.122711	545.604309
3287.530871	288.212738	-305.408539	524.213318
3287.534201	285.056702	-306.285217	503.582123
3287.537534	281.549988	-307.161896	484.236694
3287.540872	278.043274	-307.337219	463.897736
3287.544209	274.887207	-306.752777	445.545898
3287.547532	271.146698	-306.051422	428.538300
3287.550869	266.763306	-305.291626	411.530670
3287.554201	262.905914	-303.362915	394.581543
3287.557536	259.106964	-302.194031	379.151978
3287.560868	254.314438	-299.563995	364.891296
3287.564203	249.814148	-297.693756	350.046173
3287.567535	246.307404	-295.765045	336.428406
3287.571844	237.189941	-289.978943	311.939789
3287.575077	233.390991	-286.413788	299.140259
3287.578382	229.066040	-283.549957	287.684967
3287.581756	225.500870	-280.510834	275.879028
3287.585066	222.111053	-277.413208	264.891296
3287.588410	217.610748	-273.263580	254.546448
3287.591806	213.227356	-269.815308	244.084747
3287.594637	210.188187	-266.250153	234.791931
3287.597975	206.447678	-262.275848	224.856216
3287.601292	202.531845	-257.775574	214.686737
3287.604620	198.849792	-254.327286	205.510803
3287.607955	194.700165	-249.826996	195.984222
3287.611294	191.251892	-245.151367	187.568085
3287.614197	187.452942	-241.761536	178.450607
3287.617533	183.829330	-236.735229	170.268265
3287.620861	179.971939	-232.644073	162.202805
3287.624229	176.406769	-228.319107	154.604919
3287.627525	172.549377	-224.227936	146.247223
3287.630864	169.159561	-219.610748	139.233780
3287.634197	165.769730	-215.987152	132.571014
3287.637526	162.204559	-211.253052	126.025131
3287.640855	158.230270	-207.220322	119.946815
3287.644194	154.431320	-203.362946	112.991814
3287.647526	151.392166	-199.037979	108.140854
3287.650853	148.820572	-195.706589	101.419640
3287.654248	145.080063	-191.907654	96.101105
3287.657520	142.040909	-187.641144	91.951492
3287.660856	139.177094	-185.186432	87.801872
3287.664196	135.553482	-181.504379	83.009354
3287.667557	132.572769	-178.172989	79.268845
3287.670862	130.059616	-174.783157	75.528343
3287.674200	126.962006	-171.685562	71.670952
3287.677523	124.624191	-169.230850	68.690239
3287.680858	122.052597	-166.191696	66.118645
3287.684185	120.007019	-163.678558	63.722389
3287.687522	117.143188	-161.048508	61.384567
3287.690852	114.863815	-158.886032	58.345409
3287.694190	112.642899	-157.015778	55.656925
3287.697522	111.181763	-154.736420	53.903564
3287.700852	109.077728	-152.632385	52.091755
3287.704182	107.149033	-150.411453	50.747517
3287.707518	105.454117	-148.482758	48.701927
3287.710858	104.051437	-147.138519	48.585037
3287.714183	102.122734	-144.625366	45.954998
3287.717519	100.486267	-142.813553	44.902981
3287.720848	99.258911	-140.884857	43.850964
3287.725477	96.395096	-137.319702	40.694916
3287.728418	94.875511	-135.449448	39.000000
3287.731703	93.531265	-134.163651	37.772648
3287.735062	92.888367	-131.708939	37.129749
3287.738395	91.135010	-130.189362	36.194622
3287.741815	90.024551	-128.494446	34.558151
3287.745139	88.855637	-125.630623	33.564583
3287.747996	87.803619	-124.227936	32.337231
3287.751276	86.108704	-122.708366	30.642313
3287.754624	84.998245	-120.487434	29.765633
3287.757937	84.121567	-118.558739	28.538280
3287.761275	82.660431	-117.039162	27.486265
3287.764615	81.140854	-115.227348	25.674459
3287.767940	79.679718	-113.532448	24.447107
3287.770845	78.861481	-111.779076	23.161308
3287.774181	77.751022	-110.201057	22.050846
3287.777513	76.640564	-108.798370	20.414377
3287.780848	75.413208	-107.395683	19.479250
3287.784205	74.711868	-105.525421	19.245470
3287.787509	73.309174	-104.005844	18.018118
3287.790842	72.607834	-103.246056	16.440094
3287.794205	71.964935	-101.668030	16.264757
3287.797532	70.912918	-100.791359	15.797195
3287.800843	69.744011	-99.447113	14.803623
3287.804177	68.282875	-98.395096	14.219170
3287.807511	68.458214	-97.635307	13.576271
3287.810842	67.289307	-96.349503	13.634716
3287.814176	66.471069	-95.706612	12.524256
3287.817515	65.769730	-94.946815	12.407364
3287.820842	64.834602	-94.420815	11.881355
3287.824172	64.483925	-93.894798	11.998247
3287.827508	63.373466	-92.901230	12.232029
3287.830838	63.256577	-92.842781	12.407364
3287.834171	63.256577	-92.433670	12.816483
3287.837505	62.321449	-92.199890	12.232029
3287.840856	62.438339	-91.030983	11.647573
3287.844171	61.620106	-91.264763	12.056692
3287.847504	61.094101	-90.388077	11.764465
3287.850840	61.035652	-90.855644	11.939802
3287.854174	60.392754	-90.504967	12.115137
3287.857508	60.042080	-89.628296	11.589128
3287.860869	59.749855	-89.686737	11.589128
3287.864169	59.983635	-89.394508	11.764465
3287.867501	59.457626	-89.043839	12.173582
3287.870841	59.165401	-88.810059	12.465809
3287.874167	59.106956	-88.400940	11.881355
3287.877503	59.048508	-87.874924	11.413794
3287.880843	59.282291	-87.582703	11.998247
3287.885493	58.522503	-86.764465	11.647573
3287.888385	58.171829	-86.530685	11.413794
3287.891710	58.054939	-86.530685	11.063122
3287.895098	58.230278	-85.712456	10.595558
3287.898419	58.171829	-85.303329	9.952660
3287.901792	57.470486	-84.601990	10.829340
3287.905023	56.944477	-84.309761	10.186441
3287.908371	56.710697	-84.192871	10.244886
3287.911255	56.418472	-83.433083	9.426651
3287.914595	56.769142	-83.316193	9.485096
3287.917923	56.184689	-82.673294	9.309759
3287.921254	55.775574	-82.264175	8.140854
3287.924612	55.132671	-81.971954	8.549971
3287.927540	55.483345	-82.205734	7.731736
3287.930830	55.366451	-81.621277	7.731736
3287.934165	55.600235	-81.387497	8.725307
3287.937505	55.015781	-82.088844	6.913501
3287.940827	54.840446	-81.445938	8.082409
3287.944165	55.191116	-81.738167	7.673291
3287.947495	54.372883	-81.621277	7.088837
3287.950824	55.015781	-82.264175	7.731736
3287.954159	54.781998	-82.088844	8.140854
3287.957495	54.723553	-81.855064	7.205727
3287.960823	53.905319	-82.848625	7.614846
3287.964157	55.191116	-82.322624	8.608416
3287.967497	55.132671	-83.491531	8.900642
3287.970864	54.723553	-84.485100	8.959087
3287.974161	55.074226	-84.952660	9.894215
3287.977496	55.775574	-85.478668	9.426651
3287.980827	55.950905	-86.238457	10.303331
3287.984159	56.067799	-86.472237	10.478668
3287.987492	56.769142	-87.115143	11.296902
3287.990828	56.126244	-87.582703	10.946230
3287.994154	56.593803	-87.699593	11.764465
3287.997486	57.236702	-88.634720	12.115137
3288.000825	57.938049	-89.686737	12.290474
3288.004156	58.347168	-90.621864	12.816483
3288.007493	58.522503	-90.972534	12.991817
3288.010875	59.223846	-90.621864	12.991817
3288.014196	58.931618	-91.498543	13.926943
3288.017491	58.873177	-92.375221	14.043833
3288.020828	59.048508	-92.784340	13.634716
3288.024161	60.334309	-92.725891	14.160725
3288.027481	59.574516	-94.128578	14.336060
3288.030823	60.568092	-94.245468	14.336060
3288.034158	61.269432	-95.063705	14.511396
3288.037484	61.444771	-95.472824	14.452951
3288.040818	61.503216	-96.407951	14.803623
3288.045507	62.847458	-97.167740	15.095850
3288.048353	63.022797	-98.278206	15.329632
3288.051751	63.198128	-98.979546	15.388079
3288.055101	63.431911	-99.096436	15.914085
3288.058447	63.548801	-99.622452	15.504969
3288.061676	64.074814	-100.732910	15.095850
3288.065021	64.483925	-101.492699	15.972530
3288.067917	65.185272	-102.077156	15.738749
3288.071237	65.535950	-103.479843	15.621859
3288.074574	66.354179	-104.181183	16.381649
3288.077909	66.646408	-104.882530	16.790766
3288.081283	66.997078	-106.402107	17.901226
3288.084596	67.990646	-107.746346	18.544125
3288.087482	68.341324	-108.564590	18.777906
3288.090814	68.575104	-110.317940	19.303915
3288.094152	69.685562	-111.837524	20.765049
3288.097477	70.503799	-113.473999	21.349503
3288.100857	71.029808	-114.642906	21.875511
3288.104150	72.140274	-117.039162	23.336645
3288.107485	73.192291	-118.441849	25.090006
3288.110811	73.367622	-120.253654	25.791349
3288.114142	74.478088	-122.474586	27.077147
3288.117474	76.056107	-124.344833	28.304499
3288.120812	76.815903	-127.150208	29.590296
3288.124140	77.225014	-129.312683	31.694332
3288.127473	78.510811	-131.475159	32.161896
3288.130810	80.264175	-133.988312	33.389248
3288.134146	81.433083	-136.092346	35.843952
3288.137473	82.543549	-138.663940	38.006428
3288.140810	83.946228	-140.300400	39.233780
3288.144140	84.764465	-142.813553	40.578026
3288.147477	86.050262	-145.151367	42.272942
3288.150808	87.569839	-147.138519	44.786091
3288.154144	89.264755	-149.943893	46.013443
3288.157474	90.375214	-152.106369	47.766800
3288.160808	91.310349	-154.035065	49.695499
3288.164139	92.537697	-156.489761	51.390411
3288.167474	94.057281	-159.353592	52.559319
3288.170812	95.226181	-161.516068	55.189362
3288.174139	96.862656	-164.029221	56.533607
3288.177468	98.031555	-165.782578	59.572765
3288.180800	100.486267	-169.055527	60.975452
3288.184136	102.005844	-171.627121	63.663940
3288.187470	103.408539	-174.900055	66.293983
3288.190807	104.986557	-177.354752	68.222672
3288.194154	106.213913	-180.335480	70.502045
3288.197474	108.142609	-183.082397	72.781418
3288.202150	111.123322	-189.569839	78.684395
3288.205063	112.526016	-192.608994	82.366455
3288.208410	114.688492	-196.174164	85.464058
3288.211775	116.441849	-199.330215	88.152542
3288.214988	117.786087	-203.070709	92.243713
3288.218334	120.240799	-206.986557	96.860901
3288.221648	121.643494	-210.843964	102.237869
3288.225015	123.572174	-215.110458	106.679718
3288.227899	125.968445	-219.260086	111.355347
3288.231256	127.604904	-223.526581	118.310349
3288.234583	129.475159	-228.611343	124.330215
3288.237945	131.579193	-234.046753	130.759201
3288.241237	133.917007	-237.904160	137.947983
3288.244554	135.670364	-242.521317	144.669205
3288.247461	138.125076	-247.606079	152.208649
3288.250807	140.053772	-253.625946	160.274109
3288.254127	142.450027	-258.535370	169.625366
3288.257468	144.495621	-263.210968	179.210403
3288.260794	147.184097	-268.237305	187.626526
3288.264129	148.879013	-274.198700	199.140259
3288.267460	151.099945	-279.341888	209.251312
3288.270801	152.736420	-284.251312	220.531281
3288.274134	154.781998	-288.926941	231.285217
3288.277460	157.528931	-294.479248	242.565155
3288.280819	159.808304	-299.388672	254.020462
3288.284125	161.795441	-304.356506	265.884857
3288.287464	164.425476	-309.967255	278.158386
3288.290794	165.945053	-314.409088	291.133270
3288.294132	167.990646	-319.493866	304.108124
3288.297461	169.919342	-323.935699	317.316772
3288.300812	171.789597	-328.436005	332.103455
3288.304130	173.075394	-332.994751	346.071899
3288.307454	175.004089	-336.910583	361.209229
3288.310797	176.056091	-341.352417	375.060791
3288.314128	177.926361	-345.326691	390.256561
3288.317461	179.036819	-349.476318	406.095245
3288.320789	179.913498	-353.041504	423.395081
3288.324151	181.608414	-355.671539	439.467560
3288.327463	181.783752	-358.535339	455.715363
3288.330788	182.777313	-362.100525	473.833435
3288.334122	182.543533	-364.730560	493.120422
3288.337463	181.959076	-367.009949	510.887787
3288.340793	181.549973	-369.055511	530.583862
3288.344122	180.731735	-370.399780	550.279907
3288.347458	179.971939	-371.627106	570.385132
3288.350790	177.867920	-372.153137	591.074829
3288.354120	175.763885	-373.322021	612.524231
3288.357457	173.601395	-372.737579	635.084167
3288.361714	166.704849	-370.165985	681.022217
3288.365050	163.022797	-368.880188	703.932800
3288.368334	157.412048	-366.074799	727.836914
3288.371636	152.151962	-360.405609	751.565796
3288.374992	145.956741	-356.665100	775.820557
3288.378328	139.118652	-350.177673	799.257141
3288.381673	131.403854	-343.047333	823.336609
3288.384561	123.922852	-335.741669	845.896545
3288.387901	114.746933	-326.857971	868.807129
3288.391279	105.454117	-317.682068	890.139709
3288.394546	96.102867	-305.759216	909.251343
3288.397877	85.991821	-293.719452	927.895386
3288.401214	74.945648	-280.335449	945.662842
3288.404544	64.308594	-266.659241	963.547058
3288.407448	52.561077	-251.405014	976.697266
3288.410797	41.398014	-234.923416	990.315002
3288.414119	28.949154	-218.734070	1002.179443
3288.417452	17.084747	-201.492691	1010.420227
3288.420779	5.687901	-182.731735	1019.128540
3288.424118	-6.410286	-164.555222	1025.148437
3288.427447	-17.748688	-145.618927	1029.298096
3288.430778	-29.203976	-126.273537	1030.700806
3288.434116	-40.425480	-107.337234	1031.928101
3288.437447	-51.939213	-87.348923	1032.804810
3288.440778	-62.693165	-67.945061	1030.642334
3288.444111	-73.271774	-47.722969	1026.200562
3288.447445	-84.142609	-28.377556	1022.810669
3288.450800	-94.721222	-8.973700	1017.492126
3288.454141	-104.481598	11.131502	1007.614807
3288.457441	-114.183517	30.418468	999.607849
3288.460777	-123.067215	48.536530	990.665649
3288.464104	-132.067795	67.706604	978.509094
3288.467452	-141.243713	85.766220	967.229126
3288.470779	-150.536530	104.059616	954.078918
3288.474106	-159.011108	121.827003	938.883118
3288.477446	-167.018112	139.009933	923.687317
3288.480778	-174.265350	155.199295	906.621277
3288.484115	-181.921692	171.914673	889.905884
3288.487436	-188.409119	187.928696	873.015259
3288.490773	-195.305664	203.066055	853.026917
3288.494110	-201.734650	218.086487	833.623047
3288.497462	-207.403870	231.704269	812.816467
3288.500774	-212.956177	244.737595	791.425476
3288.504111	-218.216248	257.069550	771.378723
3288.507438	-223.125671	268.524841	748.643494
3288.510774	-227.041504	279.687927	725.908264
3288.514110	-230.957336	288.863831	704.341919
3288.517439	-233.938049	298.857971	681.489807
3288.521696	-238.555237	314.053772	636.019287
3288.524951	-240.191711	320.307434	613.517822
3288.528307	-240.951508	326.093506	590.548767
3288.531619	-241.243713	330.476929	568.514893
3288.535023	-241.302155	334.334320	546.364075
3288.538309	-240.425476	336.555237	525.323792
3288.541704	-240.016388	339.126831	504.984802
3288.544555	-238.613678	340.471069	484.821167
3288.547907	-236.275879	340.587952	464.365265
3288.551193	-234.230255	340.471069	446.364105
3288.554528	-232.126251	339.828156	428.246033
3288.557855	-229.846863	338.893036	411.063110
3288.561194	-226.807739	337.724152	394.815308
3288.564520	-223.184113	336.146118	377.690826
3288.567433	-220.437195	333.399200	364.189941
3288.570765	-217.631805	331.879608	348.818817
3288.574095	-214.534195	328.723572	335.727051
3288.577460	-210.735245	326.035095	322.343079
3288.580765	-207.579193	322.353027	310.712463
3288.584105	-204.715378	319.021606	299.198700
3288.587433	-200.799530	315.047333	286.749847
3288.590765	-197.935715	312.241974	275.469910
3288.594096	-194.019882	308.326141	265.358856
3288.597433	-191.039169	304.059601	255.832275
3288.600766	-187.473999	299.442444	245.954987
3288.604095	-184.843964	295.526581	236.720642
3288.607431	-181.746353	291.201660	228.246048
3288.610766	-178.064285	286.642883	218.427231
3288.614092	-174.499115	282.610168	210.712463
3288.617432	-170.992416	278.226776	202.880768
3288.620793	-168.011703	273.200470	193.646408
3288.624093	-164.738770	268.583282	186.106964
3288.627428	-161.465820	264.199890	177.983047
3288.630764	-157.900650	259.699585	170.385147
3288.634095	-154.803040	254.497955	162.670364
3288.637426	-151.530106	249.763885	156.182938
3288.640762	-148.607834	244.679123	148.818817
3288.644095	-145.451782	239.886627	142.214493
3288.647423	-142.295746	234.451202	135.727066
3288.650760	-138.613678	230.418472	128.888962
3288.654095	-135.632965	225.216827	123.395088
3288.657421	-132.476913	220.658096	115.914085
3288.660812	-129.729980	215.865570	110.829346
3288.664133	-126.924606	211.715942	105.335480
3288.667423	-123.885452	206.864990	99.666275
3288.670762	-121.196960	202.656921	94.756866
3288.674093	-118.391586	197.981293	90.198128
3288.677422	-115.703110	194.299255	85.873169
3288.682048	-110.326126	186.467560	77.047920
3288.684965	-107.871429	182.201050	72.839859
3288.688312	-105.533615	178.577454	69.450027
3288.691685	-103.663361	175.479843	66.936874
3288.695022	-101.442429	171.856232	64.189949
3288.698392	-99.396851	168.291061	61.092342
3288.701626	-96.883698	164.959686	58.403858
3288.704517	-95.305664	162.504974	56.066044
3288.707882	-93.201645	159.699600	53.903564
3288.711176	-91.214508	156.952667	51.215080
3288.714511	-89.344254	154.381073	49.227936
3288.717847	-88.058441	152.218597	47.533020
3288.721201	-86.831085	149.413208	45.954998
3288.724084	-85.019287	147.250732	44.610752
3288.727425	-83.616592	145.731155	42.857395
3288.730754	-82.038574	143.159561	42.039158
3288.734090	-80.343658	141.289307	40.753361
3288.737472	-78.940979	139.477509	39.701344
3288.740747	-78.122726	137.022797	38.123318
3288.744077	-76.427811	136.263016	37.188194
3288.747418	-74.966690	133.925201	34.908825
3288.750787	-73.505554	131.645828	34.791935
3288.754087	-72.336639	130.009354	33.681473
3288.757429	-71.576859	128.314438	32.454121
3288.760750	-70.291061	126.327293	31.343660
3288.764078	-69.122147	124.164818	29.824078
3288.767418	-68.011688	122.119225	28.713617
3288.770751	-67.076553	120.132080	28.070719
3288.774081	-66.082993	117.852715	26.492695
3288.777417	-65.206314	116.216248	25.265343
3288.780751	-64.037399	114.696663	24.973116
3288.784078	-62.634716	112.767975	23.453535
3288.787412	-62.050266	110.430153	22.226183
3288.790742	-60.589130	108.735245	21.641729
3288.794098	-60.121563	106.689644	20.180595
3288.797412	-58.835766	105.345406	19.187023
3288.800741	-58.134418	103.767387	17.784336
3288.804072	-57.023960	101.780243	16.381649
3288.807408	-56.673290	99.909988	16.030975
3288.810753	-55.562824	98.916412	14.394506
3288.814080	-54.744595	97.338394	14.394506
3288.817406	-53.867916	95.526588	13.634716
3288.820745	-52.582119	94.766800	13.284044
3288.824076	-52.465229	93.188774	12.407364
3288.827413	-51.822323	92.370537	11.881355
3288.830734	-50.770306	91.376968	10.712448
3288.834073	-50.244297	89.740501	10.770895
3288.838804	-49.192280	88.337814	10.244886
3288.841638	-48.257160	87.987144	9.952660
3288.845087	-47.672703	87.578018	10.127996
3288.848343	-48.140263	86.467560	10.069550
3288.851657	-47.322033	85.766220	10.069550
3288.854932	-46.679134	85.532440	10.127996
3288.858257	-46.270016	85.123314	9.894215
3288.861612	-45.510227	84.363525	9.660433
3288.864491	-45.802456	84.305084	9.835770
3288.867834	-44.925777	84.363525	9.952660
3288.871153	-44.984219	83.253067	9.894215
3288.874527	-44.750439	83.311508	10.361776
3288.877859	-44.458210	82.727058	9.368206
3288.881233	-43.581532	82.259491	9.835770
