time (s)	magX	magY	magZ
2284.661093	374.818237	420.112793	325.850952
2284.664422	373.123322	424.262421	318.428406
2284.667788	371.077728	428.119812	310.888947
2284.670648	369.090607	432.035645	302.472778
2284.673976	367.220337	435.717712	293.939789
2284.677300	365.174744	440.042664	285.114532
2284.680627	362.661591	443.724731	276.289276
2284.683958	360.791351	447.640564	266.879578
2284.687303	358.219757	450.679718	257.177643
2284.690194	354.888367	454.186432	247.534180
2284.693528	352.375214	456.991821	236.721802
2284.696869	348.225616	460.440094	226.376953
2284.700196	344.075989	463.245483	215.739899
2284.703531	340.803040	465.349518	204.343079
2284.706871	336.945648	467.278229	193.296875
2284.710196	332.796021	469.557556	181.198700
2284.713528	328.295746	470.843353	169.275848
2284.716864	324.321442	472.187622	157.469879
2284.720190	319.938049	473.181183	145.430145
2284.723527	314.561066	473.999420	132.630585
2284.726891	309.008759	473.531860	120.064880
2284.730194	303.748688	474.057861	107.908234
2284.733528	298.488617	473.122742	95.985352
2284.736886	292.644073	472.187622	82.659851
2284.740197	285.981293	470.258911	70.503174
2284.743527	279.376984	468.213348	57.878998
2284.746860	273.824646	465.758636	44.494995
2284.750200	266.343658	462.018127	31.929230
2284.753523	259.973114	459.212769	19.772614
2284.756863	253.310349	454.069550	6.856201
2284.760195	245.770905	449.861511	-6.118652
2284.763520	238.991241	444.893646	-17.164795
2284.766851	231.860901	439.049103	-29.847473
2284.770189	223.795441	432.035645	-41.945679
2284.773524	216.255997	425.080658	-53.225647
2284.776857	208.365875	418.125641	-64.739319
2284.780206	200.534195	409.884857	-76.077759
2284.783524	192.527176	401.059631	-86.948608
2284.786859	184.812393	392.117462	-97.527161
2284.790203	176.571594	382.181763	-108.690247
2284.793529	168.155472	371.603149	-118.275269
2284.796853	160.557571	359.855652	-127.568115
2284.800192	152.492111	348.283447	-137.679138
2284.803516	144.368195	336.535950	-146.621277
2284.808144	128.354172	310.586212	-162.693726
2284.811120	120.347168	296.910004	-169.824097
2284.814393	112.398605	282.532440	-176.194641
2284.817718	105.034500	267.804199	-182.389832
2284.821110	97.202805	252.374634	-188.701904
2284.824461	89.371124	236.945068	-192.384033
2284.827691	82.123901	221.106354	-196.592041
2284.830610	75.168884	204.858551	-200.683228
2284.833939	68.155457	188.318527	-202.845703
2284.837271	60.908234	171.720032	-203.956177
2284.840611	54.070129	155.180008	-205.592651
2284.843945	47.582703	138.639969	-205.183533
2284.847275	41.855042	121.924606	-203.722412
2284.850625	35.309174	105.326118	-201.326172
2284.853512	30.808868	89.545876	-199.923462
2284.856847	25.957916	71.836937	-195.598511
2284.860180	21.457642	56.173580	-191.098206
2284.863516	17.308014	40.568668	-186.773254
2284.866875	13.392151	25.723553	-180.168945
2284.870184	10.236115	10.410866	-172.278809
2284.873508	7.196960	-3.966690	-165.440735
2284.876845	4.683807	-17.701347	-157.433655
2284.880191	2.112213	-31.085335	-147.673279
2284.883509	0.358856	-44.995331	-138.146729
2284.886843	-1.102264	-57.093513	-128.678589
2284.890181	-1.452942	-68.373466	-118.099915
2284.893512	-1.920502	-80.179420	-107.813538
2284.896844	-2.621857	-90.290474	-95.481628
2284.900177	-2.271179	-100.343086	-83.967896
2284.903513	-0.810059	-110.395683	-72.044983
2284.906845	-0.576263	-119.220924	-59.596191
2284.910180	0.066650	-127.227943	-46.679749
2284.913514	1.293976	-135.819397	-34.230896
2284.916842	3.398010	-143.066620	-22.249573
2284.920175	6.320282	-149.729401	-9.040955
2284.923560	8.190552	-156.333710	4.226135
2284.926838	11.112823	-161.944458	17.376343
2284.930173	14.151947	-166.678558	30.175903
2284.933509	17.658691	-171.646423	43.033875
2284.936843	20.580933	-176.497375	57.645203
2284.940211	23.853912	-180.120972	70.736969
2284.943511	27.302185	-183.919922	83.302734
2284.946836	31.159576	-187.251312	96.511414
2284.950170	35.601410	-189.939789	111.122742
2284.953513	39.984802	-192.219177	122.928711
2284.956837	43.666870	-193.972534	135.845093
2284.960167	48.517822	-195.725891	148.995300
2284.963511	53.076569	-197.011688	160.742828
2284.968200	62.310944	-198.414368	185.874329
2284.971087	67.045013	-198.355927	198.615417
2284.974424	71.545288	-198.881927	210.596710
2284.977687	76.688477	-198.355927	220.941528
2284.981019	81.188782	-197.771484	233.215057
2284.984387	86.390411	-196.427216	243.910553
2284.987701	90.540039	-196.018097	254.664490
2284.991032	95.449448	-194.264740	266.178223
2284.993948	100.417313	-193.446533	275.938599
2284.997283	105.326706	-191.225616	285.231445
2285.000668	109.417892	-188.653992	294.874939
2285.003923	114.444183	-187.601990	304.752167
2285.007265	118.886047	-185.147278	313.869659
2285.010605	123.152542	-182.926361	322.461121
2285.013502	127.419052	-179.770325	331.403259
2285.016832	131.977798	-177.666260	339.234924
2285.020169	135.718307	-174.977783	346.832825
2285.023504	140.160141	-172.873779	354.255371
2285.026832	144.192871	-169.951508	361.502625
2285.030169	148.400925	-166.970795	368.983612
2285.033494	152.024551	-164.340759	375.295715
2285.036828	156.407959	-161.126251	381.315582
2285.040178	160.265335	-158.788422	388.855042
2285.043490	163.655182	-156.567505	393.355347
2285.046830	166.986557	-153.586792	399.082947
2285.050165	170.843948	-150.722961	404.343048
2285.053535	174.467560	-148.209808	409.778473
2285.056825	178.032730	-145.170685	414.980103
2285.060166	181.071899	-142.774414	419.831055
2285.063495	184.461716	-138.975464	424.389832
2285.066828	188.143784	-136.579193	429.299225
2285.070162	191.124496	-134.124512	433.390381
2285.073496	194.806549	-131.611328	437.540009
2285.076832	196.676804	-128.572174	441.222076
2285.080159	200.125076	-126.701942	444.962585
2285.083511	202.872009	-123.721214	448.703064
2285.086826	205.560501	-120.857399	452.385132
2285.090151	207.898315	-117.993584	456.008759
2285.093495	210.820572	-116.181770	458.405029
2285.096823	213.392181	-113.317940	462.203949
2285.100162	216.197556	-110.454124	465.126221
2285.103491	218.886032	-108.583885	468.106934
2285.106818	221.282288	-105.778496	471.613647
2285.110158	223.678558	-103.499123	473.659241
2285.113528	226.483932	-100.693748	477.224426
2285.116820	228.529510	-98.589714	478.977783
2285.120156	231.685577	-96.251900	482.192261
2285.123489	233.322037	-94.030968	485.172974
2285.126857	235.542953	-91.868507	487.919922
2285.131450	239.166565	-87.368217	492.653992
2285.134357	241.679718	-85.088829	494.290466
2285.137710	243.549973	-82.575691	496.803589
2285.141022	245.186432	-80.997673	498.907654
2285.144411	247.232025	-79.068962	500.427216
2285.147737	249.102295	-77.140266	500.777893
2285.151018	250.621857	-75.270027	503.524811
2285.153905	251.849213	-73.458214	504.401489
2285.157237	254.011688	-71.412636	506.447083
2285.160587	255.180603	-69.659264	507.557556
2285.163906	256.057281	-67.847466	509.077118
2285.167238	257.459961	-66.152550	510.362915
2285.170611	258.804199	-64.866737	511.707184
2285.173928	260.148437	-63.230278	513.226746
2285.176818	261.375793	-61.827583	514.512573
2285.180154	262.603149	-60.366447	515.038574
2285.183529	263.772064	-59.139107	516.149048
2285.186817	264.590302	-57.444191	517.201050
2285.190155	265.583862	-55.983055	517.960815
2285.193487	267.103455	-55.223259	519.538818
2285.196820	268.213928	-54.054359	519.831055
2285.200191	269.207489	-52.827003	520.707764
2285.203485	270.376404	-51.424309	521.642883
2285.206817	271.136169	-50.313850	522.052002
2285.210150	272.129761	-49.144943	523.162476
2285.213502	272.831116	-48.443604	523.337769
2285.216816	273.941559	-47.683807	524.272949
2285.220142	274.993561	-46.631798	524.331360
2285.223477	275.811798	-45.404442	525.500244
2285.226809	276.571594	-43.826424	525.675598
2285.230148	277.039154	-42.891296	527.312073
2285.233480	278.500305	-41.722389	527.019836
2285.236808	279.435425	-40.670372	528.247192
2285.240141	279.669189	-40.027473	528.247192
2285.243495	280.604340	-39.384575	530.818787
2285.246814	281.305664	-38.624786	530.292786
2285.250146	281.890137	-37.514328	531.227905
2285.253475	282.299255	-37.046768	531.812378
2285.256810	283.000580	-35.819412	533.039734
2285.260143	283.526611	-35.293396	532.922852
2285.263475	284.169495	-34.533607	533.507263
2285.266807	284.695496	-33.715378	533.857971
2285.270148	285.396851	-32.780251	534.091736
2285.273479	286.098206	-32.078911	534.150208
2285.276810	286.507324	-31.435997	535.319092
2285.280138	286.624207	-31.377563	535.494446
2285.283472	287.559326	-30.325539	535.845093
2285.288168	288.260681	-29.215080	536.897095
2285.291078	288.669800	-28.630623	537.481567
2285.294386	288.845123	-28.513741	536.663330
2285.297720	289.312683	-27.637062	536.897095
2285.301003	289.897156	-27.812393	537.130920
2285.304312	290.247803	-27.344833	537.072449
2285.307652	290.481598	-26.701935	538.358276
2285.311007	290.890717	-26.818825	537.832214
2285.313896	291.007599	-26.760376	538.241333
2285.317258	291.299835	-26.292809	537.832214
2285.320580	291.299835	-26.585045	537.715332
2285.323911	291.416718	-26.351257	537.890686
2285.327231	291.299835	-25.883698	537.189331
2285.330587	291.182922	-25.591469	537.364685
2285.333474	292.001160	-25.649918	537.189331
2285.336800	292.468750	-26.117477	537.598450
2285.340129	292.644073	-26.175926	537.832214
2285.343478	292.468750	-25.825249	538.416687
2285.346793	292.702515	-25.883698	537.656921
2285.350129	292.994751	-25.883698	537.890686
2285.353470	292.877838	-26.059029	537.715332
2285.356794	292.702515	-26.468155	537.773804
2285.360131	292.936310	-26.351257	537.715332
2285.363469	292.877838	-26.468155	537.481567
2285.366801	293.111633	-26.292809	538.182922
2285.370130	292.877838	-26.351257	537.656921
2285.373486	293.111633	-26.351257	537.306213
2285.376798	292.877838	-27.052605	538.358276
2285.380129	292.702515	-27.403282	537.832214
2285.383469	292.819397	-27.227936	536.780212
2285.386799	292.760956	-27.461716	538.066040
2285.390132	293.228516	-27.753944	537.715332
2285.393460	292.527161	-27.812393	537.481567
2285.396792	292.994751	-28.221512	538.182922
2285.400130	292.644073	-28.396843	536.838684
2285.403462	292.468750	-29.390419	536.546448
2285.406796	292.410278	-29.156639	536.604919
2285.410124	292.644073	-29.390419	537.189331
2285.413457	291.533600	-30.150208	536.137329
2285.416799	292.176514	-30.267097	536.663330
2285.420122	292.410278	-30.968437	536.371094
2285.423457	292.351837	-31.494446	535.786682
2285.426788	291.299835	-32.020462	536.312683
2285.430128	291.299835	-32.078911	535.552856
2285.433460	291.767395	-32.663353	535.728210
2285.438130	291.007599	-34.066048	534.267090
2285.440996	291.182922	-34.650505	534.793091
2285.444294	290.306244	-35.702515	533.624207
2285.447642	290.540039	-36.579201	533.098145
2285.450987	289.429565	-37.222099	533.098145
2285.454383	289.604919	-38.566338	532.572144
2285.457694	288.494446	-39.150795	531.929260
2285.461044	287.910004	-40.027473	531.870789
2285.463887	287.267090	-41.605492	531.344788
2285.467210	286.799530	-42.423737	530.117432
2285.470539	286.799530	-43.943306	529.649902
2285.473883	285.922852	-45.462891	528.831665
2285.477210	285.513733	-46.164238	528.013428
2285.480537	284.870850	-47.274696	527.078308
2285.483450	284.753937	-48.618935	526.552307
2285.486782	283.760376	-49.612511	525.850952
2285.490119	283.409698	-50.781418	525.149597
2285.493455	282.649902	-51.891876	524.798950
2285.496800	282.240784	-53.294579	522.870239
2285.500121	281.831665	-54.521919	522.811768
2285.503453	281.597900	-55.340157	522.461121
2285.506786	280.545898	-57.561073	521.701355
2285.510125	279.201660	-59.080666	521.000000
2285.513447	279.084747	-60.950905	519.188171
2285.516786	278.324951	-61.535362	517.727051
2285.520119	277.565186	-63.171837	517.902405
2285.523450	276.922272	-65.217415	516.791931
2285.526786	276.571594	-66.853889	515.038574
2285.530112	275.636475	-68.841026	514.044983
2285.533445	274.759796	-70.243721	513.109863
2285.536785	274.175354	-71.763298	512.583862
2285.540145	273.298645	-73.750450	511.473389
2285.543446	272.188202	-75.386909	509.310913
2285.546787	271.194641	-76.906487	508.609558
2285.550112	270.493286	-79.127419	506.739319
2285.553449	269.324371	-80.997673	505.511963
2285.556772	268.564575	-83.277031	505.511963
2285.560112	267.337219	-85.497963	503.524811
2285.563437	266.635895	-87.601997	502.122131
2285.566774	265.116302	-89.998253	500.368774
2285.570110	263.655182	-91.810051	498.089417
2285.573476	262.661621	-94.381660	496.511383
2285.576774	261.609589	-97.128578	494.641113
2285.580107	260.206909	-99.232613	492.127991
2285.583477	258.278198	-102.096443	490.082397
2285.586774	257.518433	-105.018715	487.569244
2285.590121	256.232605	-107.064293	485.289856
2285.593441	254.654587	-110.687904	482.075378
2285.596775	253.193451	-113.551720	479.854462
2285.601404	250.446533	-119.396263	473.893036
2285.604335	248.517822	-122.786095	471.321442
2285.607716	246.355347	-126.000587	467.113373
2285.611028	245.128006	-129.039764	464.249542
2285.614353	243.433075	-131.611328	460.392151
2285.617619	240.978378	-134.884277	456.768524
2285.620951	239.809479	-138.274109	453.378723
2285.623869	238.523682	-141.605499	448.644653
2285.627201	236.594971	-145.112213	445.079468
2285.630527	234.958511	-148.735809	440.286957
2285.633869	233.029816	-151.950317	435.319092
2285.637212	231.393341	-155.223267	430.409668
2285.640548	229.289307	-159.255981	426.201599
2285.643449	226.542389	-163.113403	421.876678
2285.646775	225.081238	-166.561676	416.441254
2285.650102	222.918762	-169.776154	410.888916
2285.653432	220.814728	-173.165985	405.102844
2285.656772	219.061371	-177.490936	399.433655
2285.660100	217.015778	-180.997650	392.537109
2285.663434	214.561081	-184.621277	387.569214
2285.666767	213.041504	-188.478668	380.672699
2285.670143	211.229691	-192.686737	374.126801
2285.673432	209.476334	-196.076569	366.704254
2285.676774	206.846283	-200.284637	360.216797
2285.680096	204.333145	-204.258911	352.677368
2285.683434	202.696671	-207.940948	344.904114
2285.686764	200.066635	-211.506134	337.949127
2285.690102	197.319702	-215.305054	328.948547
2285.693433	195.624786	-219.863831	320.064880
2285.696763	192.936295	-223.896545	311.298035
2285.700096	190.481598	-227.637054	302.706604
2285.703430	188.260666	-232.137360	292.595520
2285.706764	185.981293	-234.942719	283.302734
2285.710103	183.877274	-239.033905	272.431885
2285.713469	180.721222	-242.832825	261.093475
2285.716763	178.383408	-246.631805	249.813538
2285.720102	176.630051	-249.963165	238.182922
2285.723427	174.116882	-252.768555	226.084717
2285.726758	171.545288	-256.684387	212.759186
2285.730092	169.032150	-259.197540	199.199860
2285.733426	167.103455	-262.002930	186.634125
2285.736762	164.005844	-264.340729	172.431885
2285.740092	162.544724	-267.146118	157.820557
2285.743430	160.499115	-269.133270	143.793671
2285.746761	158.511993	-271.821747	129.299194
2285.750093	156.583282	-272.639954	113.226746
2285.753426	154.946823	-274.393311	97.329590
2285.757695	152.141449	-276.497375	64.834015
2285.761002	151.440094	-276.789612	48.118622
2285.764360	149.452957	-276.672699	31.052582
2285.767612	149.160721	-277.081818	14.512512
2285.770941	148.225601	-275.503815	-3.079529
2285.774275	147.582703	-274.393311	-20.846924
2285.777626	147.407364	-271.412628	-37.445374
2285.780511	147.232040	-270.068390	-55.095886
2285.783864	148.225601	-266.970795	-73.272400
2285.787201	149.043823	-263.931610	-89.637024
2285.790530	149.160721	-260.541779	-106.878418
2285.793872	149.862076	-256.333710	-123.652283
2285.797180	151.323196	-251.015198	-140.835205
2285.800124	153.368805	-245.053772	-157.784363
2285.803418	154.829926	-239.267700	-174.616638
2285.806772	156.524841	-232.488007	-190.747498
2285.810089	158.921097	-225.182343	-207.755127
2285.813415	161.784927	-217.058441	-223.009338
2285.816750	164.414963	-207.882538	-237.094727
2285.820089	168.213913	-199.524841	-251.998230
2285.823421	170.960846	-188.653992	-265.908264
2285.826753	174.759796	-178.542969	-280.052063
2285.830081	178.967865	-166.795441	-293.143799
2285.833422	183.351257	-154.755707	-304.949707
2285.836749	187.676224	-142.774414	-317.924683
2285.840091	192.059616	-129.215088	-330.081238
2285.843438	197.787262	-115.012856	-338.789612
2285.846767	203.690247	-100.518410	-348.374634
2285.850108	208.658096	-85.731743	-356.206299
2285.853413	214.911743	-69.951500	-364.154846
2285.856745	220.814728	-53.586784	-371.226746
2285.860084	226.951492	-36.696083	-376.779114
2285.863416	234.490936	-19.162483	-379.935120
2285.866749	241.562836	-1.862656	-383.909363
2285.870088	247.933380	16.138512	-385.721252
2285.873416	255.589722	33.789009	-387.007019
2285.876742	262.895386	52.023956	-386.656372
2285.880078	270.317932	70.784920	-385.545898
2285.883418	278.032745	90.188774	-383.558716
2285.886748	284.929291	108.482170	-380.052063
2285.890080	293.754517	126.600235	-375.843994
2285.893429	301.586212	144.542953	-371.343689
2285.896749	308.716553	162.602570	-365.090027
2285.900075	316.840454	180.194611	-356.966064
2285.903405	324.438354	197.786667	-348.316223
2285.906742	331.977783	215.144958	-340.776794
2285.910078	339.517242	231.451202	-330.665771
2285.914731	353.894806	263.479248	-310.385193
2285.918036	362.135590	278.324371	-297.468750
2285.920927	368.213928	292.818817	-285.545898
2285.924290	375.110474	306.495026	-273.330872
2285.927607	381.013428	319.995880	-260.472839
2285.931057	387.851562	331.860321	-247.205750
2285.934330	393.286987	343.666290	-233.061951
2285.937601	399.306854	355.238464	-219.911804
2285.940507	404.800720	365.583313	-205.008179
2285.943832	409.885437	376.629456	-191.215088
2285.947160	414.970215	386.331390	-176.369995
2285.950499	419.412048	394.572174	-162.284607
2285.953825	424.379883	402.754547	-146.504395
2285.957155	427.945068	410.469299	-130.899475
2285.960068	432.036255	417.248993	-115.762146
2285.963403	435.659851	423.911774	-100.741699
2285.966739	439.225006	429.697845	-85.195251
2285.970070	443.082397	436.009918	-69.824097
2285.973478	445.303345	440.510223	-53.167175
2285.976732	447.816467	444.893646	-37.912964
2285.980075	450.563416	448.809479	-22.834045
2285.983406	452.725891	451.848633	-7.170715
2285.986735	455.122162	454.946228	8.141968
2285.990071	456.817078	457.868500	22.753326
2285.993404	458.336639	458.803619	37.481567
2285.996733	459.330200	460.206329	53.846252
2286.000067	460.849792	461.199890	67.464050
2286.003404	462.194031	461.901245	81.198669
2286.006734	463.304504	462.251892	95.868469
2286.010064	463.596741	462.310364	110.479828
2286.013400	464.473389	461.316772	123.746918
2286.016754	465.233215	459.504974	136.897125
2286.020068	464.940979	458.569855	149.871979
2286.023400	465.466980	456.933380	163.197540
2286.026730	465.350098	454.829346	175.354156
2286.030067	465.233215	453.894196	187.686127
2286.033398	465.350098	450.621277	200.427216
2286.036733	465.408539	448.225006	210.362915
2286.040060	465.408539	445.711884	221.642883
2286.043399	464.824097	443.023407	232.864380
2286.046730	464.298065	439.516663	242.975433
2286.050066	464.298065	436.535950	252.326691
2286.053391	463.187622	432.970795	263.080627
2286.056728	462.895386	428.821167	271.730560
2286.060058	462.369385	425.723541	280.146667
2286.063393	461.960266	422.625946	288.971924
2286.066734	461.025146	418.885437	296.862061
2286.070067	460.382233	415.437164	304.693726
2286.074725	458.511993	408.423737	320.123291
2286.077596	457.635315	404.800140	327.195190
2286.080981	456.641724	400.592072	334.091736
2286.084322	456.407959	396.559326	341.397400
2286.087578	455.297485	392.585022	348.177063
2286.090915	454.070129	388.844543	354.839844
2286.094236	452.609009	385.045593	359.807678
