time (s)	magX	magY	magZ
2942.618649	376.630035	362.076569	367.990051
2942.622005	376.396271	365.349518	361.677948
2942.625245	376.104034	368.680908	354.781403
2942.628588	375.694916	371.836945	349.696655
2942.631907	375.110474	375.577454	342.215637
2942.634840	374.467560	379.259521	335.786652
2942.638157	373.824677	382.473999	328.130310
2942.641539	373.123322	385.922272	322.344238
2942.644840	373.064880	389.312103	315.389221
2942.648178	371.486847	392.234375	307.908203
2942.651558	370.317932	395.565735	300.076538
2942.654390	369.616608	398.604919	292.011078
2942.657728	367.746338	401.644073	284.530090
2942.661065	367.161896	405.443024	277.107513
2942.664391	365.934540	407.722412	268.165375
2942.667726	363.421387	410.469299	260.041473
2942.671059	362.427826	413.099365	251.450012
2942.674394	360.440674	415.320282	242.916992
2942.677729	358.511993	416.898315	233.682617
2942.681064	356.291046	419.645233	223.688477
2942.684428	354.362366	421.866180	214.395660
2942.687729	351.673889	423.561066	204.167725
2942.691064	349.102295	425.022217	194.056671
2942.694394	345.595551	426.775574	183.010498
2942.697730	342.673279	427.301575	172.022797
2942.701053	340.043243	428.178253	161.151947
2942.704388	336.828766	427.827606	149.579742
2942.707721	333.380493	427.769135	138.358246
2942.711062	330.107544	427.886017	126.026276
2942.714453	326.951477	426.950897	114.629456
2942.717727	322.684998	425.898895	101.362366
2942.721058	319.879608	424.262421	89.322601
2942.724392	316.022217	422.684418	75.646393
2942.727761	312.340149	419.469910	63.489746
2942.731055	308.073639	416.956757	49.579742
2942.734400	303.924011	413.099365	35.377533
2942.737722	299.891296	408.832855	22.461121
2942.741054	295.624786	405.033905	9.310913
2942.744386	291.533600	399.656921	-3.547058
2942.747718	287.091766	394.104614	-17.690857
2942.751053	282.533020	387.324951	-30.139709
2942.754389	277.740509	380.779083	-43.523682
2942.757719	273.357117	372.947418	-56.790771
2942.761049	268.798370	365.349518	-68.830505
2942.764386	263.772064	356.056702	-82.156067
2942.769090	253.427246	337.763306	-105.300415
2942.772021	248.459381	328.061371	-116.989502
2942.775233	243.433075	318.184113	-127.743469
2942.778583	238.231445	307.079468	-139.374084
2942.781906	232.679138	295.624207	-149.368225
2942.785241	227.243713	283.876678	-159.245483
2942.788591	221.106964	271.486267	-168.538269
2942.791988	215.262421	258.686737	-176.019287
2942.794843	209.885452	245.068970	-184.435425
2942.798208	204.274689	231.684967	-191.858032
2942.801475	199.014618	217.424316	-198.520752
2942.804806	192.702515	203.280533	-204.482178
2942.808153	187.150208	188.669189	-210.677429
2942.811478	181.481003	173.882523	-214.476379
2942.814416	174.818237	158.511398	-217.807739
2942.817715	169.149048	143.432495	-221.256042
2942.821049	163.713623	127.769135	-222.834045
2942.824381	157.985977	112.339569	-224.528931
2942.827711	152.784332	97.143768	-225.931641
2942.831044	147.524261	81.538864	-225.580933
2942.834381	142.439514	65.057274	-224.002930
2942.837710	137.646988	48.809464	-221.957336
2942.841039	133.380493	33.204556	-219.911804
2942.844377	129.055527	17.716534	-216.112793
2942.847723	125.081238	2.579193	-211.437195
2942.851039	121.399185	-12.850388	-206.586243
2942.854381	118.593811	-28.104622	-200.858582
2942.857738	115.437744	-41.780830	-193.962036
2942.861046	112.573944	-56.976631	-186.714783
2942.864385	110.528351	-70.652840	-178.123352
2942.867713	109.125671	-83.803047	-169.648743
2942.871037	107.372314	-96.719460	-160.823486
2942.874373	106.144958	-109.168327	-149.777344
2942.877703	105.969620	-121.032738	-139.549438
2942.881044	105.268265	-132.137360	-127.977234
2942.884368	105.092926	-143.183533	-115.762146
2942.887709	105.209824	-152.476349	-104.131531
2942.891035	105.092926	-161.886047	-91.039795
2942.894372	106.378723	-170.828186	-78.240234
2942.897702	106.846283	-179.010529	-64.914673
2942.901056	108.307434	-185.497955	-50.244934
2942.904371	109.242554	-192.628296	-37.854492
2942.907766	111.288147	-198.765045	-24.236755
2942.911043	112.983063	-204.258911	-9.917603
2942.914366	114.677979	-209.518982	3.758606
2942.917701	117.307999	-213.727051	18.194611
2942.921032	118.886047	-217.292206	31.227905
2942.924363	121.282288	-220.331390	46.014587
2942.928988	125.841019	-226.117462	74.419067
2942.931904	128.704865	-228.046143	88.445923
2942.935242	130.691986	-229.448853	101.128571
2942.938567	133.380493	-230.325531	115.623047
2942.941985	136.302765	-231.260651	129.649902
2942.945326	139.108139	-231.202209	142.975433
2942.948550	140.919922	-231.669800	155.599640
2942.951910	143.433075	-230.676208	167.990051
2942.954793	146.296906	-230.910004	181.315582
2942.958119	148.926956	-229.624207	194.173553
2942.961450	151.907654	-228.396851	206.797760
2942.964791	154.946823	-226.585022	219.129730
2942.968163	157.401520	-225.182343	230.701904
2942.971472	160.499115	-222.552307	242.566315
2942.974360	163.830505	-220.272919	253.495605
2942.977741	166.635880	-217.935120	265.593781
2942.981032	170.551727	-215.655762	275.997070
2942.984365	173.766220	-212.967255	286.517212
2942.987692	176.630051	-209.869659	296.043823
2942.991030	180.253647	-207.005829	306.037964
2942.994378	183.409698	-203.615997	315.213867
2942.997698	185.922852	-200.576843	325.383392
2943.001028	189.137360	-197.713013	334.383972
2943.004361	192.410294	-194.498535	342.566315
2943.007694	196.326126	-190.933380	351.274658
2943.011030	199.248398	-187.368195	359.515472
2943.014359	202.638229	-184.095276	366.762695
2943.017694	206.378723	-181.056091	374.711243
2943.021030	209.067215	-177.315613	381.081787
2943.024361	211.697266	-174.042664	388.621277
2943.027695	215.379318	-170.945068	394.465790
2943.031037	217.600235	-167.847443	401.128571
2943.034359	220.522507	-164.106964	407.323761
2943.037686	223.737000	-160.892487	413.226746
2943.041032	226.250153	-157.268829	418.369934
2943.044354	229.347748	-154.229706	423.688477
2943.047685	231.977798	-151.132080	428.422546
2943.051028	234.724731	-148.092926	433.390381
2943.054357	236.828766	-144.586212	437.890686
2943.057692	239.049683	-141.079498	441.338959
2943.061053	241.796616	-137.923431	445.547028
2943.064355	244.075989	-134.533600	449.696655
2943.067689	245.420227	-131.436005	453.846252
2943.071025	247.758026	-128.104614	458.054321
2943.074368	249.745178	-125.299248	460.801270
2943.077689	250.914093	-122.376976	464.366425
2943.081017	253.310349	-119.162483	467.347137
2943.084357	254.946808	-116.415550	471.087646
2943.089055	258.278198	-110.278786	476.873749
2943.091981	260.031555	-107.824089	479.912903
2943.095200	261.843384	-105.369377	482.601379
2943.098542	262.953827	-102.330223	485.348328
2943.101856	264.590302	-99.349510	487.510803
2943.105259	265.817657	-96.719460	489.381042
2943.108547	267.454102	-94.206322	492.127991
2943.111931	268.973694	-91.751610	494.524231
2943.114797	270.259521	-88.712456	496.628265
2943.118136	271.077728	-86.783760	498.264740
2943.121438	272.538879	-84.095268	501.537689
2943.124786	274.175354	-81.640572	503.057251
2943.128106	275.110474	-79.536537	504.810608
2943.131437	276.220917	-76.848045	507.148437
2943.134348	277.798950	-74.685570	508.960236
2943.137679	278.734070	-72.230858	510.596710
2943.141008	280.078308	-70.945076	512.116272
2943.144351	281.364105	-68.782585	513.402100
2943.147702	281.714783	-66.386330	514.921692
2943.151011	283.526611	-65.275871	516.149048
2943.154342	284.286377	-62.938057	517.259460
2943.157681	285.396851	-61.009361	518.019287
2943.161009	286.565765	-59.372887	519.655762
2943.164342	287.267090	-57.911751	520.240173
2943.167684	288.377563	-56.099953	521.876648
2943.171011	289.254242	-54.346581	522.344238
2943.174343	290.423157	-52.943901	523.571594
2943.177718	291.241394	-51.365875	525.032715
2943.181005	292.468750	-50.196968	525.909363
2943.184346	293.053192	-48.735832	527.253662
2943.187674	293.871429	-46.924026	527.721191
2943.191028	294.631226	-45.988907	529.123901
2943.194336	295.390991	-44.235535	530.059021
2943.197680	296.326111	-42.599068	531.344788
2943.201006	296.150787	-41.313263	531.520142
2943.204339	297.553467	-40.787270	532.747498
2943.207673	298.254822	-39.793694	532.981262
2943.211004	298.547058	-38.391006	533.682617
2943.214343	299.189941	-37.572762	534.091736
2943.217671	299.482178	-36.520752	534.091736
2943.221028	299.949738	-35.001167	535.319092
2943.224336	300.125061	-34.299828	535.377563
2943.227713	301.001770	-33.072472	535.494446
2943.231003	300.826416	-32.137344	536.254211
2943.234343	301.820007	-31.494446	536.371094
2943.237670	301.293976	-30.734657	537.014038
2943.241000	301.761536	-29.741096	537.423096
2943.244337	302.579773	-28.689072	537.247803
2943.248959	303.047333	-26.935722	538.007568
2943.251870	303.281128	-26.409706	539.001160
2943.255212	303.573364	-25.766815	539.118042
2943.258591	303.631805	-24.948570	539.527161
2943.261913	304.859161	-24.071892	539.877808
2943.265224	304.450043	-23.545883	540.871399
2943.268526	304.274689	-23.312103	540.988281
2943.271842	304.625366	-22.493866	541.046753
2943.274751	305.092926	-21.792526	541.572754
2943.278090	305.677368	-21.032730	541.397400
2943.281419	305.911163	-20.798950	541.864990
2943.284772	305.911163	-20.156052	542.566345
2943.288114	306.612518	-19.688492	542.274109
2943.291437	306.787842	-19.396263	542.215637
2943.294328	306.963196	-18.519585	541.806519
2943.297669	307.781433	-18.461136	542.975464
2943.301033	307.255402	-17.935135	543.735229
2943.304333	307.898315	-17.876686	543.735229
2943.307692	307.839874	-17.350677	543.559875
2943.310999	308.424316	-17.642899	543.384521
2943.314329	308.307434	-17.000008	543.735229
2943.317658	308.891876	-16.415550	543.735229
2943.321003	308.950317	-17.000008	544.553467
2943.324324	309.184113	-16.181770	543.735229
2943.327661	309.768555	-16.123322	544.085876
2943.330995	309.359436	-16.473991	544.202759
2943.334322	309.943909	-16.298660	543.501465
2943.337658	309.067200	-16.006432	543.442993
2943.340998	309.768555	-16.473991	543.442993
2943.344347	309.651672	-16.123322	543.442993
2943.347658	310.002350	-16.357101	543.676758
2943.350999	309.885437	-16.357101	543.442993
2943.354387	309.008759	-15.655762	544.378113
2943.357653	309.885437	-16.357101	543.618347
2943.360995	309.826996	-16.766228	543.267639
2943.364327	309.710114	-16.532440	543.501465
2943.367656	309.476318	-16.298660	543.150757
2943.370988	309.125671	-16.649338	543.618347
2943.374326	309.125671	-16.824669	543.033875
2943.377660	309.067200	-17.175339	541.981873
2943.380985	309.125671	-16.941559	542.858521
2943.384328	308.424316	-17.350677	542.975464
2943.387690	308.541199	-17.409119	543.033875
2943.390994	308.599670	-18.227356	543.092346
2943.394320	308.307434	-18.168915	543.033875
2943.397653	308.132080	-17.759796	542.916992
2943.400986	307.956757	-18.578026	542.916992
2943.404318	307.372314	-18.636475	542.858521
2943.408579	307.080078	-18.870255	542.566345
2943.411921	307.372314	-19.396263	542.215637
2943.415169	307.430756	-19.980713	542.390991
2943.418501	307.196960	-19.922272	542.040283
2943.421833	306.612518	-20.623619	541.981873
2943.425204	306.203400	-21.324959	541.338989
2943.428521	306.261841	-21.617187	541.163635
2943.431465	305.969604	-22.902985	540.871399
2943.434758	305.794281	-23.954994	541.046753
2943.438110	305.735840	-24.013443	540.520752
2943.441413	305.560486	-25.065468	540.403809
2943.444737	305.151367	-25.591469	539.819397
2943.448074	304.859161	-26.175926	539.936279
2943.450983	304.333130	-26.701935	539.410278
2943.454312	304.391602	-27.929283	538.358276
2943.457651	303.807129	-27.870842	537.890686
2943.460982	303.748688	-29.331970	538.358276
2943.464312	303.398010	-30.150208	536.897095
2943.467646	302.696655	-30.968437	537.364685
2943.470977	302.346008	-32.488022	536.721802
2943.474333	301.936890	-32.955589	536.604919
2943.477641	301.703094	-33.890709	535.669739
2943.480979	300.943298	-35.293396	535.260620
2943.484313	301.060211	-36.053192	535.260620
2943.487669	300.008179	-37.222099	533.565735
2943.490981	299.423737	-38.274109	533.565735
2943.494317	298.897705	-39.150795	532.630615
2943.497643	298.137939	-40.728821	531.695496
2943.500974	296.852142	-42.131508	531.227905
2943.504312	296.910583	-43.358864	530.585022
2943.507644	296.150787	-45.404442	529.299194
2943.510976	295.449463	-46.281120	528.831665
2943.514309	294.689667	-47.859154	526.844543
2943.517676	293.286987	-49.086494	526.493835
2943.520977	292.176514	-50.489189	525.324951
2943.524308	292.001160	-51.716537	524.798950
2943.527640	290.773804	-53.294579	524.565125
2943.530975	290.364716	-55.047920	522.811768
2943.534304	289.137360	-56.918175	522.578003
2943.537638	287.910004	-58.437767	520.766174
2943.540977	287.208649	-59.548225	519.889526
2943.544308	286.565765	-61.184685	518.194580
2943.547645	285.630615	-62.528938	516.441223
2943.551007	284.637054	-64.516075	516.265930
2943.554310	282.649902	-66.269432	515.096985
2943.557642	282.357697	-67.964348	513.051392
2943.560972	281.305664	-69.776146	511.940948
2943.565587	279.493866	-73.984230	509.836914
2943.568508	278.091187	-76.088264	508.258881
2943.571843	277.097595	-78.659859	506.154846
2943.575166	276.454712	-80.530098	505.102844
2943.578552	275.636475	-82.692589	502.531250
2943.581893	274.409119	-85.147285	501.070129
2943.585145	272.655762	-87.192863	498.790741
2943.588481	271.486847	-89.998253	497.212708
2943.591396	270.902405	-92.686729	494.933350
2943.594722	269.207489	-94.440102	493.355316
2943.598080	267.454102	-97.829918	491.192841
2943.601392	266.285217	-100.401512	487.978363
2943.604785	265.233215	-103.265343	484.997650
2943.608076	263.304504	-106.479836	482.016937
2943.610966	262.310913	-109.752785	479.153107
2943.614300	260.206909	-112.149040	475.704834
2943.617656	258.278198	-115.480415	472.782562
2943.620969	256.700195	-118.344246	469.158936
2943.624299	255.414383	-121.091179	465.418457
2943.627636	253.544128	-124.656349	461.911743
2943.630962	251.440094	-127.578606	458.229675
2943.634299	249.686737	-130.968445	453.554047
2943.637629	247.348923	-133.715363	450.398010
2943.640963	245.537109	-137.105225	446.189941
2943.644296	243.199310	-140.670380	442.390991
2943.647667	240.686157	-143.767975	436.546448
2943.650959	238.289886	-145.755096	432.396820
2943.654300	235.718292	-150.138519	427.604309
2943.657629	233.731155	-153.703674	422.285767
2943.660961	230.925781	-156.509064	416.967255
2943.664294	227.711288	-159.431335	412.057831
2943.667630	224.672119	-163.054962	406.213318
2943.670958	222.451202	-165.684967	400.018097
2943.674293	220.171829	-169.074799	393.764465
2943.677630	217.132675	-172.113983	387.510803
2943.680996	214.736420	-175.386902	380.906494
2943.684292	211.521912	-178.542969	374.535950
2943.687630	208.891876	-181.932800	366.879578
2943.690992	206.554077	-185.673279	359.632355
2943.694291	203.924026	-189.180023	351.800659
2943.697631	201.177094	-192.394501	344.202789
2943.700960	198.021042	-195.609009	335.319092
2943.704290	194.981888	-198.589722	327.721191
2943.707621	192.293396	-201.921082	318.545288
2943.710954	189.546463	-205.252472	309.369354
2943.714287	187.208649	-208.116302	300.719421
2943.717621	183.994156	-210.629456	290.725281
2943.720957	181.071899	-213.434814	280.848022
2943.725623	175.344238	-219.279358	258.521912
2943.728557	173.181763	-221.149628	247.709503
2943.731888	170.317947	-223.779663	236.780212
2943.735179	167.161896	-226.059021	224.506714
2943.738466	164.181183	-227.987732	212.525391
2943.741811	161.258911	-229.565735	198.907654
2943.745176	159.154877	-231.552887	187.335449
2943.748484	155.648163	-232.663361	173.425476
2943.751393	153.251907	-233.481567	160.158356
2943.754730	149.686737	-234.416687	145.488586
2943.758096	147.465805	-234.475159	132.104584
2943.761375	144.543549	-233.656921	117.551697
2943.764713	142.264175	-233.598480	103.349487
2943.768038	139.634140	-232.488007	89.264130
2943.770953	136.945648	-231.085327	74.419067
2943.774286	134.490952	-228.221527	60.158386
2943.777626	131.393341	-225.942139	44.728790
2943.780946	129.172424	-223.195190	30.292786
2943.784288	126.425476	-218.928711	15.389221
2943.787614	124.029236	-215.129730	1.245422
2943.790944	122.334320	-210.161865	-13.950378
2943.794287	120.171829	-205.194031	-27.626587
2943.797614	119.353607	-199.758636	-42.062561
2943.800949	117.366455	-193.212738	-55.505005
2943.804279	115.554642	-186.725311	-69.356567
2943.807654	114.268860	-179.244324	-82.506714
2943.810949	113.684387	-171.061951	-94.721802
2943.814284	112.807709	-162.412048	-108.456482
2943.817614	112.807709	-153.762146	-119.794861
2943.820955	112.807709	-144.352417	-132.360596
2943.824274	112.749268	-134.241364	-143.640564
2943.827608	113.216827	-123.487434	-153.693176
2943.830949	114.502625	-113.142601	-164.505615
2943.834275	115.905304	-100.810646	-174.441284
2943.837607	117.834015	-89.004677	-183.091187
2943.840947	119.178253	-76.380470	-191.741089
2943.844279	121.574524	-63.522499	-199.514343
2943.847611	124.672134	-49.963188	-206.586243
2943.850958	127.594406	-35.877861	-213.132080
2943.854270	130.984207	-22.844536	-219.502625
2943.857605	134.374054	-8.291649	-223.593811
2943.860947	138.465210	6.553474	-228.620117
2943.864271	142.322617	22.392166	-233.178894
2943.867606	146.706009	37.120396	-235.399780
2943.870946	151.440094	52.666859	-236.627136
2943.874275	156.291061	67.921097	-237.562256
2943.877602	161.551147	84.636467	-237.328491
2943.880935	166.635880	100.066040	-236.393372
2943.885572	177.740509	131.684982	-232.360596
2943.888456	183.059021	148.108124	-229.905884
2943.891804	188.669785	163.303925	-225.756348
2943.895168	194.397430	178.265930	-219.619507
2943.898543	199.189957	193.812378	-214.242554
2943.901851	205.502045	209.417297	-207.755127
2943.905140	210.645233	224.320862	-200.624817
2943.908031	216.022202	238.581543	-192.033325
2943.911366	220.990067	253.017548	-183.558777
2943.914700	226.308594	266.810638	-174.967285
2943.918033	231.802460	279.434845	-164.856262
2943.921358	237.471649	292.292786	-154.628296
2943.924712	242.731750	304.390991	-142.880798
2943.928043	247.582703	316.021637	-131.834595
2943.930930	251.615433	326.366425	-120.320923
2943.934268	256.524841	337.178833	-108.514954
2943.937603	261.609589	347.523651	-96.475159
2943.940935	266.402100	356.290466	-83.383423
2943.944271	271.253052	364.765045	-71.752808
2943.947602	275.578033	373.414978	-57.959717
2943.950935	279.610748	380.486847	-45.510803
2943.954261	284.520172	387.441833	-33.178894
2943.957602	288.728241	394.046173	-20.437805
2943.960961	293.170074	399.715363	-7.229126
2943.964257	297.670380	404.858551	5.453552
2943.967600	301.586212	409.709534	17.376343
2943.970936	305.794281	413.391602	30.409698
2943.974263	309.300995	417.015198	42.800079
2943.977592	313.742859	419.937469	56.125641
2943.980935	317.541809	422.158386	67.873169
2943.984261	321.048523	425.139099	80.146667
2943.987596	325.198120	426.541809	91.485046
2943.990935	328.938629	428.119812	103.875488
2943.994258	331.685577	429.347168	115.973694
2943.997590	335.484528	430.165405	127.253601
2944.000929	338.406769	430.516083	138.416718
2944.004332	341.445953	430.282318	149.696655
2944.007592	344.251312	430.691406	160.859711
2944.010932	346.822906	429.580933	172.373444
2944.014260	350.154297	428.821167	182.952057
2944.017589	353.135010	427.886017	192.770874
2944.020921	355.881958	426.308014	203.524811
2944.024259	357.518402	424.788422	212.408508
2944.027591	359.973114	422.567505	222.694916
2944.030921	361.960266	420.463470	232.221497
2944.034261	363.304504	418.476349	242.098755
2944.037586	364.824097	416.489197	251.040894
2944.040920	366.226776	413.391602	260.392151
2944.045613	368.681488	408.423737	277.867310
2944.048558	369.850372	405.326111	285.640533
