time (s)	det(V)
2704.914810	1.625983	
2704.916290	1.626060	
2704.917980	1.626048	
2704.919479	1.626027	
2704.921187	1.626108	
2704.922691	1.625919	
2704.924379	1.625999	
2704.925873	1.626023	
2704.927544	1.626044	
2704.929059	1.625935	
2704.930698	1.625987	
2704.932253	1.625995	
2704.933947	1.626152	
2704.935516	1.625975	
2704.937216	1.625963	
2704.938794	1.625999	
2704.940464	1.625927	
2704.942050	1.625951	
2704.943705	1.626003	
2704.945300	1.625907	
2704.946940	1.625963	
2704.948540	1.625786	
2704.950157	1.625903	
2704.951827	1.625681	
2704.953401	1.626056	
2704.955066	1.622023	
2704.956646	1.536921	
2704.958299	1.376997	
2704.959855	1.137352	
2704.961548	0.940411	
2704.963098	0.797487	
2704.964817	0.626617	
2704.966366	0.467140	
2704.968075	0.322189	
2704.969608	0.115037	
2704.971335	-0.041407	
2704.972814	-0.228760	
2704.974597	-0.392101	
2704.976090	-0.551848	
2704.977867	-0.657035	
2704.979344	-0.828976	
2704.981122	-1.017356	
2704.982599	-1.154170	
2704.984354	-1.282851	
2704.985849	-1.422424	
2704.987583	-1.580499	
2704.989102	-1.627196	
2704.990809	-1.627941	
2704.992344	-1.627993	
2704.994046	-1.627667	
2704.995587	-1.628090	
2704.997275	-1.627949	
2704.998832	-1.628199	
2705.000514	-1.627784	
2705.002095	-1.628175	
2705.003738	-1.627735	
2705.005342	-1.628195	
2705.006978	-1.628130	
2705.008576	-1.628034	
2705.010204	-1.628110	
2705.011820	-1.628106	
2705.013436	-1.628118	
2705.015086	-1.628158	
2705.016662	-1.628163	
2705.018343	-1.627816	
2705.019915	-1.628026	
2705.021612	-1.628058	
2705.023185	-1.628312	
2705.024858	-1.627957	
2705.026422	-1.628170	
2705.028135	-1.628175	
2705.029676	-1.628263	
2705.031399	-1.628058	
2705.032913	-1.628179	
2705.034677	-1.628154	
2705.036159	-1.628082	
2705.037920	-1.627981	
2705.039407	-1.628146	
2705.041188	-1.628074	
2705.042672	-1.628219	
2705.044447	-1.627985	
2705.045949	-1.628126	
2705.047437	-1.628251	
2705.049017	-1.628199	
2705.050571	-1.628203	
2705.052164	-1.628239	
2705.053662	-1.628175	
2705.055314	-1.628195	
2705.056816	-1.628215	
2705.058460	-1.628279	
2705.059944	-1.628271	
2705.061584	-1.628267	
2705.063059	-1.628247	
2705.064705	-1.628203	
2705.066183	-1.628271	
2705.067815	-1.628275	
2705.069296	-1.628279	
2705.070981	-1.628078	
2705.072487	-1.628360	
2705.074145	-1.627905	
2705.075679	-1.628211	
2705.077290	-1.628106	
2705.078859	-1.628199	
2705.080478	-1.628134	
2705.082067	-1.628299	
2705.083646	-1.628122	
2705.085264	-1.628376	
2705.086810	-1.628227	
2705.088462	-1.628138	
2705.090076	-1.628074	
2705.091748	-1.628154	
2705.093327	-1.628235	
2705.095003	-1.628247	
2705.096580	-1.628114	
2705.098266	-1.628122	
2705.099846	-1.628013	
2705.101549	-1.628134	
2705.103094	-1.628114	
2705.104815	-1.628005	
2705.106358	-1.628142	
2705.108065	-1.628026	
2705.109572	-1.628090	
2705.111303	-1.628150	
2705.112781	-1.628215	
2705.114545	-1.627945	
2705.116036	-1.628227	
2705.117796	-1.628134	
2705.119274	-1.628078	
2705.121030	-1.628122	
2705.122522	-1.628030	
2705.124272	-1.627792	
2705.125776	-1.627993	
2705.127515	-1.627909	
2705.129039	-1.628021	
2705.130744	-1.628078	
2705.132288	-1.628167	
2705.133988	-1.628026	
2705.135538	-1.628122	
2705.137215	-1.627913	
2705.138774	-1.628118	
2705.140452	-1.627627	
2705.142036	-1.628090	
2705.143671	-1.627828	
2705.145272	-1.628215	
2705.146887	-1.628110	
2705.148516	-1.628102	
2705.150151	-1.628094	
2705.151788	-1.628021	
2705.153410	-1.627981	
2705.155093	-1.627945	
2705.156680	-1.627981	
2705.158351	-1.627735	
2705.159922	-1.628018	
2705.161619	-1.627752	
2705.163175	-1.627840	
2705.164871	-1.627393	
2705.166423	-1.628005	
2705.168118	-1.627288	
2705.169679	-1.627977	
2705.171398	-1.626527	
2705.172932	-1.627260	
2705.174658	-1.597769	
2705.176145	-1.557091	
2705.177902	-1.544156	
2705.179389	-1.474845	
2705.181181	-1.447367	
2705.182678	-1.447387	
2705.184473	-1.383438	
2705.185953	-1.342144	
2705.187712	-1.300563	
2705.189200	-1.262564	
2705.190954	-1.225318	
2705.192462	-1.190643	
2705.194206	-1.209616	
2705.195728	-1.151588	
2705.197473	-1.106161	
2705.199005	-1.046759	
2705.200708	-1.059416	
2705.202247	-0.945463	
2705.203770	-0.960162	
2705.205359	-0.929756	
2705.206860	-0.892958	
2705.208481	-0.854955	
2705.210002	-0.861932	
2705.211636	-0.795795	
2705.213112	-0.746577	
2705.214751	-0.777156	
2705.216238	-0.729565	
2705.217877	-0.694801	
2705.219357	-0.656890	
2705.220967	-0.666155	
2705.222483	-0.617348	
2705.224050	-0.612095	
2705.225614	-0.579627	
2705.227216	-0.576469	
2705.228794	-0.566595	
2705.230360	-0.519899	
2705.231970	-0.504797	
2705.233516	-0.470774	
2705.235144	-0.385494	
2705.236647	-0.443490	
2705.238336	-0.368237	
2705.239814	-0.379411	
2705.241510	-0.364720	
2705.242993	-0.377627	
2705.244692	-0.336071	
2705.246210	-0.324469	
2705.247961	-0.334286	
2705.249440	-0.301153	
2705.251213	-0.236281	
2705.252704	-0.273660	
2705.254454	-0.224708	
2705.255936	-0.216285	
2705.257688	-0.213984	
2705.259192	-0.211024	
2705.260966	-0.184441	
2705.262463	-0.197065	
2705.264199	-0.176436	
2705.265723	-0.159505	
2705.267441	-0.149918	
2705.268978	-0.091677	
2705.270699	-0.104120	
2705.272241	-0.128669	
2705.273954	-0.117518	
2705.275510	-0.128652	
2705.277202	-0.115850	
2705.278770	-0.076550	
2705.280430	-0.097308	
2705.282010	-0.050656	
2705.283662	-0.103145	
2705.285258	-0.070294	
2705.286878	-0.076023	
2705.288500	-0.026804	
2705.290110	-0.067567	
2705.291752	-0.035707	
2705.293343	-0.063104	
2705.295003	-0.084494	
2705.296592	-0.055003	
2705.298289	-0.046495	
2705.299847	-0.045415	
2705.301561	-0.050511	
2705.303103	-0.055297	
2705.304798	-0.019078	
2705.306348	-0.044900	
2705.308051	-0.030442	
2705.309583	-0.041246	
2705.311328	-0.056054	
2705.312813	-0.015441	
2705.314579	-0.014816	
2705.316068	-0.061098	
2705.317845	-0.030212	
2705.319328	-0.020907	
2705.321106	-0.039248	
2705.322588	-0.042116	
2705.324351	-0.030075	
2705.325842	-0.010373	
2705.327577	-0.055704	
2705.329089	-0.022776	
2705.330810	-0.039151	
2705.332330	-0.027602	
2705.334062	-0.027542	
2705.335611	-0.052171	
2705.337300	-0.036319	
2705.338863	-0.033431	
2705.340564	-0.016778	
2705.342118	-0.003174	
2705.343792	-0.054471	
2705.345367	-0.028992	
2705.347010	-0.044223	
2705.348601	-0.031900	
2705.350227	-0.035002	
2705.351849	0.017725	
2705.353463	-0.035606	
2705.355110	-0.031683	
2705.356725	-0.029592	
2705.358368	0.028710	
2705.359852	0.004141	
2705.361406	-0.021890	
2705.362909	-0.010353	
2705.364465	-0.011787	
2705.365969	-0.011404	
2705.367573	0.000947	
2705.369102	0.016150	
2705.370671	0.018615	
2705.372214	0.041609	
2705.373708	0.016476	
2705.375371	0.005519	
2705.376862	0.033044	
2705.378491	0.022599	
2705.380021	0.033310	
2705.381652	0.010985	
2705.383147	0.007908	
2705.384791	0.021423	
2705.386269	0.016899	
2705.387988	0.054588	
2705.389479	0.033496	
2705.391170	0.048557	
2705.392658	0.032976	
2705.394331	0.037677	
2705.395831	0.055804	
2705.397489	0.043449	
2705.399019	0.037705	
2705.400635	0.030672	
2705.402202	0.053697	
2705.403797	0.037907	
2705.405386	0.087628	
2705.407051	0.066693	
2705.408628	0.106670	
2705.410272	0.037987	
2705.411863	0.091527	
2705.413500	0.032053	
2705.415134	0.064252	
2705.416741	0.044038	
2705.418412	0.067853	
2705.419986	0.049911	
2705.421658	0.121426	
2705.423250	0.063623	
2705.424924	0.079350	
2705.426501	0.030809	
2705.428202	0.054890	
2705.429747	0.044988	
2705.431461	0.020613	
2705.432995	0.023376	
2705.434721	0.058971	
2705.436249	0.046938	
2705.437972	0.060215	
2705.439461	0.066036	
2705.441238	0.060195	
2705.442723	0.060759	
2705.444499	0.034603	
2705.445980	0.048288	
2705.447760	0.022474	
2705.449246	0.065396	
2705.451020	0.041991	
2705.452510	0.040521	
2705.454265	0.026353	
2705.455773	0.041850	
2705.457507	0.031501	
2705.459025	0.024693	
2705.460730	0.009305	
2705.462256	0.034043	
2705.463942	0.019320	
2705.465493	0.030760	
2705.467178	-0.004512	
2705.468750	0.097328	
2705.470418	0.012085	
2705.472004	0.014224	
2705.473667	0.038350	
2705.475270	0.042273	
2705.476912	-0.020963	
2705.478530	0.027252	
2705.480141	0.002300	
2705.481799	0.007094	
2705.483417	-0.003819	
2705.485102	0.023968	
2705.486704	-0.000914	
2705.488352	-0.007658	
2705.489952	-0.010361	
2705.491631	0.002804	
2705.493193	-0.007150	
2705.494887	0.025511	
2705.496425	0.015364	
2705.498140	-0.020033	
2705.499694	0.010667	
2705.501379	0.019106	
2705.502918	-0.021112	
2705.504643	0.002780	
2705.506152	0.025463	
2705.507913	0.018341	
2705.509390	-0.015138	
2705.511164	0.017523	
2705.512644	-0.015396	
2705.514417	-0.006030	
2705.515903	0.007799	
2705.517681	0.033250	
2705.519207	0.047091	
2705.520701	0.025950	
2705.522269	0.048380	
2705.523806	0.027840	
2705.525419	0.021499	
2705.526912	0.036279	
2705.528538	0.028480	
2705.530066	0.013696	
2705.531689	0.026833	
2705.533181	0.027328	
2705.534809	0.054225	
2705.536296	0.020887	
2705.537934	0.059031	
2705.539420	0.050354	
2705.541066	0.081553	
2705.542547	0.021245	
2705.544222	0.005072	
2705.545728	0.053742	
2705.547377	0.029725	
2705.548909	0.016806	
2705.550520	0.011380	
2705.552102	0.053130	
2705.553672	0.068546	
2705.555278	0.078915	
2705.556830	0.032005	
2705.558479	0.047143	
2705.559998	0.015839	
2705.561706	0.065891	
2705.563311	0.008766	
2705.564952	0.048735	
2705.566530	0.023401	
2705.568213	0.037000	
2705.569764	0.034491	
2705.571472	0.056054	
2705.573011	0.052594	
2705.574712	0.053432	
2705.576255	0.028138	
2705.577973	0.028815	
2705.579477	0.053714	
2705.581241	0.046604	
2705.582731	0.011702	
2705.584523	0.053017	
2705.586004	0.054157	
2705.587782	0.056711	
2705.589263	0.033584	
2705.591027	0.064236	
2705.592516	0.039647	
2705.594278	0.013527	
2705.595789	0.046173	
2705.597543	0.044207	
2705.599056	0.004580	
2705.600781	0.008335	
2705.602306	0.027010	
2705.604021	-0.009160	
2705.605562	0.004600	
2705.607270	0.010494	
2705.608831	0.014220	
2705.610526	-0.004894	
2705.612107	0.030555	
2705.613791	-0.006002	
2705.615359	0.009032	
2705.617031	-0.002860	
2705.618612	0.029431	
2705.620264	-0.006941	
2705.621884	-0.006075	
2705.623502	0.010111	
2705.625124	0.048142	
2705.626739	-0.041681	
2705.628371	0.043167	
2705.629959	-0.005257	
2705.631615	0.006804	
2705.633204	0.000346	
2705.634894	-0.001156	
2705.636440	0.012508	
2705.638147	-0.017660	
2705.639693	0.016411	
2705.641412	0.042773	
2705.642953	-0.027542	
2705.644678	-0.008621	
2705.646196	0.001023	
2705.647933	0.015626	
2705.649412	-0.009479	
2705.651193	0.042221	
2705.652671	-0.016875	
2705.654443	0.027775	
2705.655928	0.011304	
2705.657701	0.031312	
2705.659189	0.050298	
2705.660964	0.019328	
2705.662455	0.037338	
2705.664191	0.013817	
2705.665705	0.044714	
2705.667421	0.052110	
2705.668949	0.048980	
2705.670651	0.054282	
2705.672194	0.113031	
2705.673870	0.051172	
2705.675465	0.077533	
2705.676957	0.024363	
2705.678605	0.097272	
2705.680105	0.103113	
2705.681743	0.077432	
2705.683230	0.076752	
2705.684847	0.113748	
2705.686340	0.095532	
2705.687964	0.084260	
2705.689467	0.124753	
2705.691081	0.115838	
2705.692588	0.144214	
2705.694188	0.130062	
2705.695699	0.152943	
2705.697263	0.127452	
2705.698817	0.117567	
2705.700415	0.118376	
2705.702012	0.162043	
2705.703588	0.144766	
2705.705190	0.176819	
2705.706734	0.156081	
2705.708395	0.204542	
2705.709873	0.156714	
2705.711578	0.207273	
2705.713056	0.193102	
2705.714771	0.203551	
2705.716249	0.175397	
2705.717945	0.253172	
2705.719429	0.223399	
2705.721120	0.217038	
2705.722599	0.248676	
2705.724390	0.219048	
2705.725869	0.212844	
2705.727651	0.204764	
2705.729134	0.261567	
2705.730869	0.241143	
2705.732380	0.219612	
2705.734086	0.233397	
2705.735613	0.271424	
2705.737321	0.261519	
2705.738865	0.274429	
2705.740583	0.310567	
2705.742134	0.297290	
2705.743820	0.264939	
2705.745378	0.313375	
2705.747040	0.283501	
2705.748621	0.291844	
2705.750258	0.307349	
2705.751858	0.348671	
2705.753486	0.316896	
2705.755108	0.343946	
2705.756730	0.350661	
2705.758356	0.364027	
2705.759966	0.337775	
2705.761629	0.391782	
2705.763206	0.367914	
2705.764900	0.372761	
2705.766470	0.390348	
2705.768167	0.442418	
2705.769705	0.444457	
2705.771383	0.452820	
2705.772918	0.483253	
2705.774623	0.492366	
2705.776133	0.482577	
2705.777903	0.557822	
2705.779382	0.541950	
2705.781159	0.572517	
2705.782639	0.565028	
2705.784414	0.640672	
2705.785893	0.626384	
2705.787672	0.655718	
2705.789162	0.708521	
2705.790914	0.701053	
2705.792414	0.732244	
2705.794152	0.791927	
2705.795676	0.770017	
2705.797387	0.831860	
2705.798925	0.860127	
2705.800621	0.904173	
2705.802165	0.941213	
2705.803853	0.969830	
2705.805434	1.043105	
2705.807121	1.034211	
2705.808699	1.095526	
2705.810371	1.127265	
2705.811947	1.210252	
2705.813602	1.220037	
2705.815205	1.301683	
2705.816820	1.307629	
2705.818445	1.380030	
2705.820052	1.412857	
2705.821715	1.509629	
2705.823320	1.526351	
2705.824957	1.607441	
2705.826548	1.619542	
2705.828229	1.623687	
2705.829795	1.625947	
2705.831509	1.625721	
2705.832986	1.625629	
2705.834561	1.625850	
2705.836060	1.625963	
2705.837690	1.625907	
2705.839180	1.625931	
2705.840775	1.626019	
2705.842328	1.625899	
2705.843869	1.625661	
2705.845464	1.625830	
2705.846949	1.625858	
2705.848595	1.625927	
2705.850087	1.625935	
2705.851734	1.625999	
2705.853223	1.625907	
2705.854863	1.625798	
2705.856344	1.625923	
2705.858039	1.625874	
2705.859522	1.626027	
2705.861236	1.625693	
2705.862734	1.626019	
2705.864453	1.626040	
2705.865931	1.625975	
2705.867628	1.625951	
2705.869109	1.625967	
2705.870765	1.626003	
2705.872283	1.626080	
2705.873907	1.626064	
2705.875461	1.625975	
2705.877038	1.625959	
2705.878628	1.625979	
2705.880294	1.626108	
2705.881890	1.625959	
2705.883513	1.626080	
2705.885133	1.625983	
2705.886757	1.626056	
2705.888382	1.625907	
2705.889994	1.625955	
2705.891659	1.626048	
2705.893235	1.625967	
2705.894908	1.625991	
2705.896464	1.626096	
2705.898138	1.626039	
2705.899707	1.626169	
2705.901379	1.625959	
2705.902924	1.626068	
2705.904646	1.626132	
2705.906184	1.626108	
2705.907913	1.625923	
2705.909390	1.626088	
2705.911167	1.625975	
2705.912651	1.626031	
2705.914419	1.626011	
2705.915904	1.625999	
2705.917679	1.626164	
2705.919166	1.625975	
2705.920938	1.626068	
2705.922435	1.626052	
2705.924202	1.626072	
2705.925704	1.626056	
2705.927428	1.626036	
2705.928954	1.626084	
2705.930652	1.626036	
2705.932185	1.626064	
2705.933895	1.626112	
2705.935457	1.626164	
2705.937147	1.626193	
2705.938715	1.625967	
2705.940393	1.625995	
2705.941965	1.625983	
2705.943614	1.626132	
2705.945205	1.625987	
2705.946842	1.626124	
2705.948461	1.625987	
2705.950085	1.626152	
2705.951730	1.625995	
2705.953341	1.626197	
2705.955001	1.625979	
2705.956593	1.626064	
2705.958278	1.626100	
2705.959832	1.626140	
2705.961531	1.625987	
2705.963089	1.626172	
2705.964794	1.625975	
2705.966348	1.626088	
2705.968047	1.626052	
2705.969589	1.626132	
2705.971309	1.625987	
2705.972801	1.626092	
2705.974551	1.626088	
2705.976035	1.626007	
2705.977808	1.626080	
2705.979297	1.626032	
2705.981057	1.626072	
2705.982537	1.625975	
2705.984301	1.626156	
2705.985803	1.626011	
2705.987562	1.625971	
2705.989086	1.625991	
2705.990574	1.625991	
2705.992141	1.625983	
2705.993634	1.626036	
2705.995289	1.625991	
2705.996774	1.626080	
2705.998399	1.626035	
2705.999931	1.626044	
2706.001580	1.625967	
2706.003061	1.625907	
2706.004690	1.625951	
2706.006169	1.625979	
2706.007803	1.625770	
2706.009286	1.625943	
2706.010907	1.625846	
2706.012398	1.625939	
2706.014046	1.625733	
2706.015572	1.625798	
2706.017198	1.624875	
2706.018768	1.624722	
2706.020348	1.586703	
2706.021958	1.427286	
2706.023516	1.268663	
2706.025142	1.145505	
2706.026687	0.995354	
2706.028361	0.901603	
2706.029952	0.759238	
2706.031595	0.641140	
2706.033165	0.483918	
2706.034846	0.365345	
2706.036396	0.217102	
2706.038107	0.117760	
2706.039646	0.001660	
2706.041335	-0.140331	
2706.042877	-0.264673	
2706.044577	-0.400625	
2706.046093	-0.492631	
2706.047867	-0.654397	
2706.049343	-0.796915	
2706.051123	-0.897872	
2706.052608	-0.994641	
2706.054374	-1.184028	
2706.055863	-1.255188	
2706.057605	-1.410222	
2706.059104	-1.512191	
2706.060860	-1.625282	
2706.062381	-1.627897	
2706.064134	-1.627308	
2706.065655	-1.628013	
2706.067355	-1.627913	
2706.068884	-1.628074	
2706.070579	-1.627735	
2706.072129	-1.628070	
2706.073797	-1.627739	
2706.075363	-1.628050	
2706.077038	-1.627949	
2706.078610	-1.628163	
2706.080260	-1.627993	
2706.081854	-1.628223	
2706.083505	-1.627848	
2706.085130	-1.628199	
2706.086748	-1.628110	
2706.088375	-1.628158	
2706.089972	-1.628163	
2706.091633	-1.627776	
2706.093219	-1.628110	
2706.094891	-1.628259	
2706.096479	-1.628231	
2706.098177	-1.628166	
2706.099741	-1.628279	
2706.101452	-1.627929	
2706.102984	-1.628175	
2706.104691	-1.628251	
2706.106243	-1.628082	
2706.107968	-1.627772	
2706.109497	-1.628271	
2706.111223	-1.628170	
2706.112719	-1.628231	
2706.114507	-1.628058	
2706.115991	-1.628163	
2706.117754	-1.628275	
2706.119238	-1.628271	
2706.120984	-1.628062	
2706.122462	-1.628336	
2706.124186	-1.628275	
2706.125701	-1.628203	
2706.127431	-1.628106	
2706.128946	-1.628227	
2706.130672	-1.628187	
2706.132201	-1.628263	
2706.133895	-1.628078	
2706.135453	-1.628312	
2706.137156	-1.628102	
2706.138720	-1.628328	
2706.140391	-1.628239	
2706.141992	-1.628312	
2706.143489	-1.628364	
2706.145054	-1.628368	
2706.146573	-1.628307	
2706.148199	-1.628299	
2706.149683	-1.628227	
2706.151295	-1.628158	
2706.152784	-1.628263	
2706.154394	-1.628235	
2706.155896	-1.628231	
2706.157482	-1.628308	
2706.159010	-1.628154	
2706.160566	-1.628247	
2706.162123	-1.628324	
2706.163621	-1.628086	
2706.165274	-1.628275	
2706.166768	-1.628122	
2706.168404	-1.628352	
2706.169916	-1.628247	
2706.171583	-1.627937	
2706.173069	-1.628038	
2706.174798	-1.628034	
2706.176269	-1.628102	
2706.177976	-1.628054	
2706.179461	-1.628163	
2706.181159	-1.628070	
2706.182639	-1.628110	
2706.184346	-1.628074	
2706.185825	-1.628138	
2706.187517	-1.628054	
2706.189023	-1.628154	
2706.190753	-1.628098	
2706.192281	-1.628114	
2706.194011	-1.628062	
2706.195542	-1.628154	
2706.197249	-1.627993	
2706.198786	-1.628142	
2706.200472	-1.627957	
2706.202041	-1.628187	
2706.203699	-1.628029	
2706.205283	-1.628404	
2706.206924	-1.627711	
2706.208531	-1.628170	
2706.210191	-1.627929	
2706.211796	-1.628142	
2706.213418	-1.628142	
2706.215043	-1.628215	
2706.216652	-1.628106	
2706.218325	-1.628026	
2706.219912	-1.628021	
2706.221588	-1.627792	
2706.223184	-1.628195	
2706.224837	-1.627856	
2706.226418	-1.628021	
2706.228115	-1.627611	
2706.229680	-1.628195	
2706.231369	-1.627872	
2706.232913	-1.628199	
2706.234615	-1.627889	
2706.236139	-1.628050	
2706.237883	-1.627522	
2706.239374	-1.628046	
2706.241129	-1.628021	
2706.242623	-1.627977	
2706.244395	-1.628017	
2706.245873	-1.628094	
2706.247638	-1.627800	
2706.249121	-1.627929	
2706.250886	-1.627635	
2706.252384	-1.627836	
2706.254115	-1.627159	
2706.255634	-1.627316	
2706.257384	-1.627546	
2706.258908	-1.604859	
2706.260623	-1.607111	
2706.262163	-1.550674	
2706.263859	-1.492025	
2706.265413	-1.424559	
2706.267085	-1.405066	
2706.268658	-1.319988	
2706.270335	-1.316129	
2706.271927	-1.254588	
2706.273584	-1.234869	
2706.275173	-1.188495	
2706.276810	-1.180870	
2706.278401	-1.135056	
2706.280034	-1.102136	
2706.281674	-1.043750	
