time (s)	magX	magY	magZ
1553.390452	482.474579	504.040314	-205.826416
1553.393828	478.909424	501.410278	-216.580383
1553.397100	476.571594	497.494446	-228.094116
1553.400439	473.123322	493.344849	-238.555847
1553.403759	469.967285	490.013428	-249.777344
1553.407113	465.525421	485.630066	-261.232605
1553.410003	461.551147	482.006439	-271.226746
1553.413334	457.752197	477.447662	-281.805359
1553.416661	454.596130	473.298065	-292.384033
1553.420011	450.329651	467.979553	-303.254883
1553.423328	445.595551	462.661011	-313.950317
1553.426661	441.329041	457.810059	-324.353577
1553.429999	436.478088	451.731750	-335.282837
1553.433331	431.627136	446.763885	-346.329102
1553.436663	425.841034	441.036255	-355.329651
1553.439994	420.171814	434.431915	-365.616028
1553.443418	414.385742	428.236694	-375.434814
1553.446663	408.132080	421.515472	-385.195251
1553.450034	401.410889	415.028076	-395.189331
1553.453330	394.689667	408.715973	-404.540588
1553.456657	387.383972	401.059631	-414.359436
1553.459999	380.019867	394.046173	-422.717163
1553.463358	372.363525	385.746918	-431.600830
1553.466661	363.888947	377.915253	-439.607849
1553.470001	355.881958	369.323792	-448.199341
1553.473326	346.004669	361.083008	-456.907715
1553.476661	337.471649	352.199310	-464.622437
1553.479995	328.471069	342.322021	-473.739990
1553.483327	319.236694	333.847473	-480.753357
1553.486664	310.236115	323.268860	-488.643494
1553.489990	300.767975	313.391571	-495.014099
1553.493323	290.832275	302.812958	-501.793762
1553.496662	281.247223	292.234375	-508.456482
1553.499990	271.837524	281.188202	-513.658142
1553.503324	262.194031	270.083557	-519.268860
1553.506708	253.368790	258.336060	-524.938049
1553.509996	243.608429	246.705414	-529.789001
1553.513321	234.023376	235.191681	-534.289368
1553.516663	225.081238	222.625946	-539.549377
1553.519995	215.963776	210.703094	-541.887268
1553.524614	197.962601	185.746933	-549.192932
1553.527530	190.247818	172.947388	-552.582703
1553.530857	181.188782	160.381653	-554.803650
1553.534238	173.590897	147.757446	-556.323181
1553.537612	165.233200	135.250137	-557.609070
1553.540893	157.284637	122.625946	-559.011658
1553.544172	149.511398	110.118637	-559.654602
1553.547071	142.614838	98.020454	-560.180603
1553.550446	135.250732	85.571594	-558.544128
1553.553745	127.828171	72.246048	-558.310364
1553.557075	121.165405	59.680302	-557.725891
1553.560410	114.268860	47.465221	-555.271179
1553.563771	107.839874	35.834599	-552.290466
1553.566648	100.943298	23.911747	-550.595520
1553.569988	93.170074	13.099358	-547.556458
1553.573328	86.390411	0.767380	-542.997742
1553.576659	79.610748	-9.928116	-538.497375
1553.580023	72.947968	-21.091179	-533.997131
1553.583318	66.811218	-32.020462	-528.503235
1553.586649	59.797791	-42.482170	-521.372864
1553.589984	52.842773	-53.762138	-515.469910
1553.593346	45.537109	-63.639397	-509.274719
1553.596646	39.166565	-73.867332	-502.144348
1553.599983	32.854462	-83.627708	-494.312683
1553.603319	26.659271	-92.686729	-486.013489
1553.606670	20.405609	-102.271767	-475.960876
1553.609979	13.801300	-111.856819	-467.544739
1553.613313	8.132080	-120.506721	-458.427307
1553.616643	1.878418	-129.215088	-448.199341
1553.619976	-4.024536	-137.689636	-437.971375
1553.623315	-9.050842	-145.638245	-427.626587
1553.626650	-14.895386	-154.112793	-416.288147
1553.629980	-19.454132	-161.009338	-405.358826
1553.633305	-23.837524	-168.782593	-393.494446
1553.636655	-27.636475	-175.503815	-381.337830
1553.639976	-31.669189	-182.400360	-369.239685
1553.643309	-35.117493	-189.530701	-356.849243
1553.646644	-38.448853	-196.251892	-344.458801
1553.649972	-41.721802	-201.804199	-332.769714
1553.653314	-44.234955	-208.233185	-320.613037
1553.656643	-46.280518	-214.077728	-307.872070
1553.659973	-48.209229	-219.922272	-296.007629
1553.663307	-49.553467	-225.649902	-282.798950
1553.666641	-51.306854	-230.500854	-272.044983
1553.669973	-52.008179	-235.760956	-258.953247
1553.673304	-53.761566	-240.144348	-247.088867
1553.676638	-54.404419	-244.527740	-235.107605
1553.681333	-54.462891	-252.826996	-211.670959
1553.684264	-54.462891	-256.392181	-200.449463
1553.687560	-54.404419	-260.424896	-188.818848
1553.690902	-53.995331	-262.879578	-177.889526
1553.694184	-53.293976	-266.386322	-166.375854
1553.697481	-52.709503	-269.016357	-154.920532
1553.700817	-51.949707	-271.237274	-143.991272
1553.703736	-51.248383	-274.042664	-132.068420
1553.707060	-50.371704	-275.796021	-121.840454
1553.710390	-48.969025	-277.023376	-110.794250
1553.713751	-48.384583	-278.659851	-99.163696
1553.717077	-46.572754	-280.004089	-88.468201
1553.720409	-45.871429	-281.699005	-76.545288
1553.723730	-44.702515	-282.809479	-64.680908
1553.726633	-43.475159	-283.277039	-55.271179
1553.729969	-42.715393	-283.218567	-44.809509
1553.733304	-41.371124	-283.686127	-33.412659
1553.736659	-40.260681	-284.329041	-22.191162
1553.739962	-39.033325	-284.504364	-13.015259
1553.743301	-37.396820	-284.212158	-0.916992
1553.746629	-36.052612	-283.744598	9.836914
1553.749961	-34.766785	-282.283447	19.889526
1553.753296	-32.954987	-282.225006	30.760376
1553.756634	-32.312103	-281.173004	41.397400
1553.759969	-30.617187	-280.413208	51.859131
1553.763296	-28.980713	-279.419647	62.496185
1553.766628	-26.876678	-278.426056	73.308563
1553.769957	-25.006439	-277.666260	83.127380
1553.773293	-23.486847	-276.497375	92.127991
1553.776634	-21.733490	-274.860901	102.297485
1553.779976	-19.571014	-273.399750	111.824066
1553.783291	-17.233215	-271.938629	120.064880
1553.786627	-15.187622	-271.003510	129.240784
1553.789963	-12.674438	-269.367035	137.306213
1553.793297	-10.219757	-268.081238	146.540619
1553.796626	-8.583282	-266.503204	154.664490
1553.799967	-5.251892	-265.743439	161.444183
1553.803298	-3.849213	-264.165405	169.684967
1553.806628	-0.810059	-262.938049	177.165985
1553.809961	2.229095	-262.002930	184.354736
1553.813291	3.924011	-260.015778	191.251282
1553.816629	6.670959	-259.372894	197.914062
1553.819961	9.417908	-257.619537	203.817047
1553.823290	11.521912	-255.924622	210.012268
1553.826624	13.976624	-255.164825	215.798340
1553.829964	16.431335	-253.820557	221.292206
1553.833294	18.476929	-252.534760	228.597870
1553.837537	23.737000	-249.495605	238.358246
1553.840854	25.899475	-248.794281	242.975433
1553.844139	28.120392	-246.807129	248.001740
1553.847476	30.165985	-245.638245	252.385132
1553.850818	32.503784	-244.060181	257.762115
1553.854194	34.257141	-243.241943	262.905304
1553.857568	37.062531	-241.547028	268.165375
1553.860402	38.932770	-240.319672	272.490356
1553.863769	41.153717	-238.624756	276.756836
1553.867059	42.556396	-236.286957	281.023376
1553.870384	44.485107	-235.293396	285.289856
1553.873723	46.530670	-232.604919	289.205688
1553.877049	47.991821	-231.552887	294.173553
1553.879953	49.628296	-229.624207	297.388062
1553.883286	51.907654	-227.812378	302.472778
1553.886616	53.310364	-226.059021	305.921082
1553.889957	54.888367	-224.480988	309.778442
1553.893283	56.291046	-222.201630	314.570984
1553.896636	58.395111	-219.513153	317.785492
1553.899954	59.447113	-218.344238	322.578003
1553.903283	61.083588	-216.123322	325.675598
1553.906619	62.486267	-214.720642	330.409668
1553.909945	64.239624	-212.967255	333.682617
1553.913335	66.519012	-211.097015	337.364685
1553.916622	67.629456	-208.992981	340.286926
1553.919951	69.791931	-207.356506	343.618347
1553.923285	71.077728	-205.427826	347.241943
1553.926654	71.954407	-203.615997	349.287537
1553.929946	73.473999	-202.797760	352.618927
1553.933281	74.935120	-201.395081	356.008728
1553.936611	77.156036	-200.226196	358.755676
1553.939964	77.740509	-198.414368	361.736389
1553.943282	79.260101	-197.888367	363.431305
1553.946617	81.130341	-196.193451	365.476898
1553.949951	82.240814	-195.082977	368.516052
1553.953281	83.409698	-194.615417	370.444763
1553.956612	84.637054	-192.745178	372.431885
1553.959949	86.215088	-192.043823	373.659241
1553.963282	87.267090	-190.699585	375.646393
1553.966609	88.669769	-190.465820	377.049072
1553.969961	89.955597	-189.706024	378.802429
1553.973283	90.773834	-188.946228	380.438904
1553.976642	91.767395	-187.952667	381.549377
1553.979937	92.585602	-188.069550	382.659821
1553.983278	93.462311	-187.192871	383.770264
1553.986612	94.806549	-186.491516	384.471649
1553.991235	96.033905	-185.205719	387.393921
1553.994568	96.969040	-184.504364	388.036804
1553.997472	97.904160	-183.919922	389.088806
1554.000880	98.430161	-183.627716	390.666840
1554.004218	99.306854	-182.341919	391.426636
1554.007574	99.423721	-181.991211	391.835754
1554.010795	100.358841	-181.173004	393.063110
1554.014141	100.300415	-180.705444	393.764465
1554.017030	100.709534	-179.828735	394.816467
1554.020361	101.293976	-179.302765	395.985382
1554.023701	101.293976	-178.426056	397.563416
1554.027042	101.060196	-177.607819	397.738708
1554.030397	102.170654	-176.906494	398.790771
1554.033721	103.105789	-176.497375	399.375183
1554.036608	104.157806	-175.971375	401.011658
1554.039966	102.930450	-175.328461	401.070129
1554.043268	103.982483	-173.808899	402.823486
1554.046604	103.865585	-173.341339	403.349487
1554.049933	104.157806	-172.698425	404.109283
1554.053268	103.924011	-172.523071	404.576843
1554.056631	104.157806	-171.763306	405.161285
1554.059938	104.216248	-171.120392	405.453522
1554.063268	104.157806	-171.354187	406.154846
1554.066604	104.333145	-170.302155	407.382202
1554.069945	104.742264	-169.951508	407.206879
1554.073268	104.683807	-169.834595	407.966675
1554.076603	104.157806	-168.899475	408.726440
1554.079935	104.274704	-168.899475	408.668030
1554.083264	105.034500	-168.431915	408.668030
1554.086600	104.508469	-169.016357	409.427795
1554.089933	104.157806	-168.841034	408.609558
1554.093267	104.157806	-169.425476	407.791321
1554.096599	103.865585	-169.483948	406.973083
1554.099943	103.924011	-169.542358	407.206879
1554.103314	104.040909	-170.068390	406.154846
1554.106598	103.748688	-170.652832	406.505554
1554.109928	103.164215	-171.003510	405.687286
1554.113264	103.047348	-171.237274	404.693726
1554.116596	101.995331	-171.938629	403.817047
1554.119930	102.287552	-171.763306	403.524841
1554.123263	101.527771	-172.172424	401.654572
1554.126600	101.586197	-173.399780	400.836334
1554.129931	101.060196	-173.341339	400.427216
1554.133264	99.715958	-174.510223	399.667419
1554.136629	99.715958	-174.744019	398.498535
1554.139932	98.722382	-174.919342	397.680298
1554.143262	97.495041	-175.737579	395.985382
1554.146595	96.969040	-176.029816	395.050232
1554.150844	95.917007	-177.140259	393.238434
1554.154171	95.098785	-177.490936	391.660400
1554.157510	94.397430	-178.367615	390.257721
1554.160766	92.468750	-178.542969	389.848633
1554.164112	91.708954	-178.952087	388.738159
1554.167442	90.656921	-179.068970	387.043243
1554.170781	89.897125	-179.945648	385.289856
1554.173686	89.195801	-180.413208	385.640564
1554.177030	87.909973	-180.354767	383.068939
1554.180401	86.565765	-180.413208	382.309143
1554.183704	85.572174	-181.231445	381.666260
1554.187018	84.578613	-182.166565	381.081787
1554.190351	83.409698	-181.757446	378.860870
1554.193675	82.182373	-182.458771	376.873749
1554.196590	81.130341	-183.335480	376.523071
1554.199920	79.669189	-183.160156	374.652832
1554.203256	77.623596	-184.387482	372.899475
1554.206591	76.688477	-184.445923	370.678528
1554.209927	75.461121	-185.088837	368.457611
1554.213253	73.766205	-185.848633	366.996460
1554.216590	72.188202	-187.192871	364.483337
1554.219923	70.668640	-188.069550	362.671509
1554.223274	69.090576	-188.361755	360.742798
1554.226589	68.097015	-189.998260	357.762115
1554.229925	66.928101	-191.284027	355.190521
1554.233252	64.648743	-191.517822	353.261810
1554.236616	63.421387	-192.803619	350.573334
1554.239916	61.668030	-193.972534	347.534180
1554.243255	59.973114	-195.433655	345.021027
1554.246584	58.395111	-196.427216	341.806519
1554.249913	56.641724	-197.888367	338.416687
1554.253249	55.063690	-199.057281	334.968445
1554.256585	53.485687	-200.927521	331.227905
1554.259912	51.498535	-202.271790	327.195190
1554.263248	49.452942	-203.499115	323.454681
1554.266607	48.108704	-205.427826	319.129761
1554.269915	45.478668	-206.772064	316.148987
1554.273248	43.491547	-208.817657	311.590271
1554.276583	41.679718	-209.869659	308.083557
1554.279911	39.400330	-211.097015	303.758606
1554.283243	37.237885	-211.915253	299.959656
1554.286580	35.192291	-213.668610	294.641113
1554.289915	33.380493	-215.071289	291.660400
1554.293241	30.925781	-216.298645	287.744568
1554.296578	28.412628	-216.941559	282.952057
1554.299908	25.607269	-218.285797	278.743988
1554.304520	21.340729	-220.565155	270.912323
1554.307884	18.652252	-221.792511	265.886017
1554.310783	16.489777	-221.967834	261.736389
1554.314116	13.859741	-223.721222	256.417847
1554.317447	10.937469	-224.247223	252.092926
1554.320840	8.015198	-224.656342	247.475739
1554.324159	6.028046	-225.825256	242.390991
1554.327426	3.398010	-226.877258	237.715363
1554.330335	1.001770	-227.578583	232.805969
1554.333677	-1.920502	-228.279938	227.954956
1554.336993	-4.024536	-228.046143	221.993561
1554.340335	-6.829926	-228.981293	216.324371
1554.343659	-9.985962	-229.974854	210.596710
1554.347018	-13.258911	-230.150208	205.453522
1554.349911	-15.479828	-231.143768	199.667419
1554.353246	-18.869659	-232.429565	193.647552
1554.356569	-21.441254	-233.481567	186.400330
1554.359906	-23.779083	-232.955566	180.848022
1554.363236	-26.409119	-233.481567	173.016357
1554.366570	-28.863800	-234.358276	165.418457
1554.369947	-31.552307	-236.111633	159.106354
1554.373236	-34.007019	-236.053192	151.333130
1554.376570	-36.812408	-236.871399	144.085907
1554.379903	-38.799530	-238.157196	135.202209
1554.383254	-41.429565	-239.092316	127.195190
1554.386567	-44.527161	-239.559906	120.006409
1554.389905	-46.397430	-240.085907	110.888947
1554.393232	-49.085907	-240.495026	103.115692
1554.396568	-51.365295	-241.137939	93.121552
1554.399906	-53.819977	-241.137939	84.237854
1554.403240	-55.631805	-241.488617	75.529510
1554.406565	-57.969604	-241.897705	66.704254
1554.409897	-60.541229	-241.371704	57.762146
1554.413256	-62.586792	-241.780823	47.592621
1554.416570	-64.983063	-241.137939	38.299774
1554.419895	-67.554626	-240.085907	28.831665
1554.423280	-69.132690	-240.261261	18.720612
1554.426571	-71.061340	-239.267700	9.486206
1554.429901	-73.632965	-237.981873	0.251892
1554.433231	-75.152557	-237.514313	-9.683838
1554.436563	-77.081238	-236.111633	-19.035095
1554.439900	-79.711273	-234.592072	-28.561707
1554.443234	-81.055511	-232.429565	-37.971375
1554.446563	-83.217987	-231.202209	-47.205750
1554.449896	-84.854492	-229.682648	-56.381653
1554.453234	-86.724731	-226.643463	-65.616028
1554.456580	-89.413177	-224.831665	-75.902405
1554.461239	-91.867889	-218.694916	-94.429626
1554.464159	-93.621277	-216.064850	-103.605530
1554.467477	-95.316193	-213.142609	-112.372314
1554.470829	-96.894196	-209.518982	-122.541809
1554.474069	-97.595581	-205.953827	-131.600830
1554.477405	-99.348907	-202.447113	-141.594971
1554.480761	-99.816498	-198.531281	-151.589172
1554.484089	-101.452942	-194.849213	-161.232605
1554.486981	-101.686737	-190.641144	-170.466980
1554.490331	-101.920532	-186.725311	-179.526001
1554.493666	-102.855652	-181.874359	-190.396851
1554.496996	-102.797211	-177.783173	-199.455872
1554.500345	-101.920532	-172.815308	-210.560547
1554.503657	-101.803619	-167.789001	-219.093506
1554.506560	-101.569824	-163.873169	-230.198181
1554.509891	-100.167145	-158.320862	-240.659851
1554.513240	-99.991821	-153.294586	-250.244934
1554.516561	-98.355377	-147.859161	-261.875549
1554.519886	-97.186432	-142.073059	-271.635864
1554.523228	-95.608398	-136.579193	-281.104065
1554.526554	-94.205719	-130.500885	-291.448853
1554.529884	-92.510803	-124.773232	-302.436584
1554.533227	-89.646973	-118.578026	-312.547668
1554.536557	-87.601410	-110.746346	-321.898926
1554.539887	-84.153107	-104.726479	-332.068420
1554.543244	-81.639984	-97.011696	-341.127441
1554.546554	-78.367004	-89.589134	-349.952637
1554.549885	-74.977173	-82.341911	-358.544128
1554.553244	-71.938049	-74.860909	-367.427795
1554.556559	-67.963776	-67.263008	-375.960876
1554.559887	-64.398590	-59.022209	-384.376953
1554.563221	-60.424286	-50.781418	-390.513794
1554.566557	-56.917603	-41.605492	-398.520691
1554.569887	-52.417297	-32.897141	-405.125122
1554.573220	-48.501465	-23.896553	-412.430725
1554.576549	-43.884277	-14.895966	-417.515503
1554.579885	-39.909973	-5.661606	-422.132629
1554.583219	-35.409698	3.981880	-428.269470
1554.586573	-31.435425	14.034481	-431.834656
1554.589881	-26.993561	23.502625	-436.919373
1554.593214	-22.668610	33.146111	-442.179443
1554.596551	-18.109863	43.198708	-444.751038
1554.599893	-12.615997	53.485092	-448.140869
1554.603212	-7.063690	63.479248	-452.232056
1554.606544	-2.680298	73.473404	-454.160767
1554.609879	2.638214	84.694916	-455.621887
1554.613207	7.547638	94.864403	-458.485657
1554.616545	12.983063	105.267677	-460.005249
1554.621186	24.847473	125.665108	-462.869141
1554.624063	30.049103	136.652832	-464.271790
1554.627395	35.893646	146.646973	-464.856201
1554.630771	42.322601	157.225601	-465.966675
1554.634086	48.926941	167.102859	-466.668091
1554.637478	55.414368	176.687897	-467.194031
1554.640801	62.135590	187.091171	-467.661621
1554.643654	68.681488	197.436005	-466.784912
1554.646968	75.928680	207.605499	-466.200500
1554.650303	83.292816	217.774963	-465.440735
1554.653642	90.364685	228.119812	-464.213318
1554.656962	97.611938	237.003510	-462.927612
1554.660294	105.560501	247.056091	-461.524841
1554.663632	113.333725	257.284058	-460.063721
1554.666535	121.399185	266.401520	-458.777954
1554.669877	129.347763	275.811218	-455.563416
1554.673213	137.588547	284.870270	-454.219238
1554.676540	145.244888	294.279938	-451.296936
1554.679872	153.193451	303.338959	-449.017578
1554.683201	161.609589	312.339569	-445.101685
1554.686543	169.499710	321.164825	-441.770325
1554.689875	177.389832	329.347168	-437.912903
1554.693206	185.104630	337.704834	-433.646423
1554.696543	192.936295	346.471680	-429.730591
1554.699872	200.651093	354.537140	-425.171814
1554.703207	207.196960	362.777924	-420.729980
1554.706540	214.736420	369.966705	-414.184143
1554.709904	221.749847	377.272369	-408.924072
1554.713205	229.172409	385.980713	-404.248413
1554.716540	235.893631	393.227936	-398.345459
1554.719864	242.556412	399.598480	-392.325562
1554.723201	248.576263	406.962616	-386.656372
1554.726533	254.713043	413.625366	-379.584473
1554.729871	261.142029	420.755707	-372.629517
1554.733197	267.278778	426.424896	-366.726440
1554.736534	272.246643	433.204559	-360.180603
1554.739873	277.798950	439.925781	-353.225586
1554.743201	283.468140	444.776733	-346.562805
1554.746555	288.552887	451.205719	-338.906555
1554.749873	293.520752	456.056702	-331.717712
1554.753243	299.073059	461.083008	-324.996521
1554.756528	304.450043	466.693756	-317.690796
1554.759877	309.300995	471.077148	-310.911133
1554.763201	314.035065	476.512543	-303.020996
1554.766535	319.178253	480.603760	-296.066040
1554.769866	324.029236	484.987122	-288.175903
1554.773195	329.055542	489.195221	-280.870300
1554.777881	339.049683	496.968445	-267.194031
1554.780743	343.959106	500.592072	-259.479248
1554.784129	349.803619	504.040314	-252.407349
1554.787451	354.596130	507.488617	-244.926392
1554.790753	359.680878	510.586182	-238.322021
1554.794045	364.414978	513.040894	-230.256592
1554.797376	369.441254	516.255371	-223.126282
1554.800283	374.233795	519.177673	-216.346619
1554.803631	379.376984	521.340149	-209.333130
1554.806955	383.994171	523.911743	-201.793701
1554.810303	388.436005	525.898865	-196.007629
1554.813633	393.053192	528.762695	-188.935730
