time (s)	magX	magY	magZ
3874.085892	401.819977	378.090607	301.479248
3874.089206	402.053772	380.311523	293.705994
3874.092118	401.819977	383.584442	285.289856
3874.095447	401.644653	385.337830	277.691956
3874.098893	401.703094	387.850983	269.860291
3874.102190	401.644653	390.013458	260.509033
3874.105492	401.761536	391.240814	251.625366
3874.108765	400.943298	393.753967	242.916992
3874.111682	400.358856	395.215088	232.572174
3874.115001	399.657532	396.559326	222.636444
3874.118341	399.189941	397.786682	213.226746
3874.121665	398.780823	398.546478	202.414368
3874.124998	397.436584	399.189362	191.192841
3874.128378	396.676788	399.423157	180.731140
3874.131243	394.631226	399.715363	169.451172
3874.134572	393.812988	399.656921	157.820557
3874.137902	392.527191	399.247803	146.774384
3874.141236	390.773804	398.312683	135.026855
3874.144617	389.488037	396.676239	123.454712
3874.147900	387.325531	396.033295	111.298065
3874.151236	385.221497	394.747528	99.959656
3874.154596	383.117493	392.292816	88.738129
3874.157905	380.662781	389.721222	75.704834
3874.161235	378.208069	386.448273	64.249542
3874.164566	375.578033	383.467590	52.268250
3874.167898	372.889526	379.317963	40.170044
3874.171236	370.376404	374.817657	28.422546
3874.174565	367.571014	370.609589	16.265930
3874.177903	364.824097	366.050873	4.869080
3874.181233	361.843384	360.381653	-6.820007
3874.184571	359.037994	354.244904	-19.619507
3874.187899	355.823486	348.225006	-29.438354
3874.191231	352.199890	340.685577	-41.653442
3874.194568	349.569855	333.263000	-53.108704
3874.197917	345.712463	326.015778	-63.044434
3874.201234	342.381073	318.359436	-74.382874
3874.204562	339.341919	309.417297	-85.312073
3874.207921	336.244293	300.650482	-95.130920
3874.211230	332.503815	291.182343	-105.943298
3874.214566	328.354187	281.305084	-115.995972
3874.217894	326.308594	270.668030	-125.580933
3874.221232	322.275879	259.446503	-134.640015
3874.224562	318.944489	247.757446	-143.699036
3874.227893	314.970184	236.594391	-152.290527
3874.231230	311.171265	224.262421	-159.946838
3874.234563	307.430756	212.222687	-166.375854
3874.237899	303.514893	198.780243	-174.032166
3874.241265	300.066620	185.805359	-179.993591
3874.245901	290.832275	158.336060	-192.267090
3874.248845	286.448853	144.133835	-196.007629
3874.252171	282.708374	129.230270	-199.163696
3874.255494	278.149628	115.086494	-202.670410
3874.258735	273.473999	100.475159	-204.774414
3874.262079	269.090607	86.565163	-206.118652
3874.265400	264.765625	71.018700	-206.995361
3874.268757	260.031555	56.232025	-206.995361
3874.272088	256.115723	41.445351	-205.592651
3874.274995	251.615433	27.769138	-204.073059
3874.278337	246.647583	13.450027	-200.566345
3874.281700	242.439514	-0.109299	-197.293396
3874.284981	238.173004	-13.434837	-192.500916
3874.288314	234.315613	-26.994156	-187.649902
3874.291671	229.815323	-39.033897	-182.857422
3874.294553	226.133255	-52.593231	-176.369995
3874.297889	223.035660	-64.340752	-169.824097
3874.301220	219.938049	-76.088264	-162.167725
3874.304553	216.606674	-86.725304	-153.108704
3874.307887	213.450607	-97.596138	-144.692566
3874.311220	210.586792	-107.882530	-135.282898
3874.314550	208.482758	-117.350670	-125.054932
3874.317889	206.378723	-126.701942	-115.937500
3874.321221	205.092926	-135.293396	-105.534180
3874.324557	202.813553	-143.300415	-94.020447
3874.327888	201.644653	-150.664520	-84.143250
3874.331220	200.417313	-157.853302	-72.395691
3874.334568	199.540619	-164.574524	-60.648193
3874.337885	199.540619	-170.126831	-49.251343
3874.341214	198.430161	-176.614258	-37.270020
3874.344551	198.488602	-181.348328	-25.522522
3874.347887	197.962601	-186.666840	-12.722961
3874.351218	197.436584	-191.050262	0.018127
3874.354546	198.313278	-195.316772	12.233215
3874.357888	198.313278	-198.998840	24.682037
3874.361217	198.430161	-202.330200	36.955566
3874.364551	199.306839	-205.720032	48.995300
3874.367878	200.241959	-208.057861	62.613098
3874.371248	201.586212	-210.512573	75.295715
3874.374547	201.995331	-212.441254	88.270599
3874.377892	202.229111	-213.434814	100.894775
3874.381213	203.164230	-215.246643	113.168335
3874.384544	204.508469	-215.831085	125.500275
3874.387879	205.502045	-216.766205	138.767365
3874.391208	206.846283	-216.649323	150.398010
3874.394543	207.313843	-216.532410	162.905304
3874.397919	209.710114	-216.006439	175.821716
3874.401214	210.236130	-215.188202	187.744568
3874.404547	211.872589	-214.720642	198.907654
3874.407874	213.216827	-214.253082	210.187592
3874.412505	215.496216	-210.687897	233.039734
3874.415437	217.600235	-208.642334	243.501434
3874.418745	218.769150	-206.772064	254.255371
3874.422110	220.347168	-204.726471	264.074219
3874.425473	221.691406	-202.096436	273.834595
3874.428787	223.152542	-199.758636	283.010498
3874.432060	224.847473	-197.070129	292.303314
3874.435401	225.782593	-195.258331	301.362335
3874.438300	227.360611	-191.926941	309.661591
3874.441625	229.698425	-188.537109	317.376343
3874.444968	231.101105	-185.848633	325.324921
3874.448299	232.912933	-183.218567	333.331970
3874.451643	234.315613	-179.711884	341.046753
3874.454991	235.659851	-177.081848	348.527740
3874.457872	237.296326	-173.984222	355.774963
3874.461207	239.166565	-171.646423	361.794861
3874.464570	240.510803	-167.905914	367.580933
3874.467871	242.088837	-165.275879	373.951477
3874.471203	244.134430	-162.938049	379.153107
3874.474542	245.303345	-160.074219	384.939209
3874.477892	247.115143	-157.093506	390.491516
3874.481199	248.693161	-154.814148	394.874908
3874.484534	250.154297	-151.132080	400.251892
3874.487872	251.440094	-148.209808	405.161285
3874.491202	252.784332	-146.105804	410.538269
3874.494533	254.946808	-143.066620	415.096985
3874.497868	255.940384	-140.027466	418.662170
3874.501206	258.161316	-137.455872	422.753357
3874.504536	259.563995	-135.059631	426.260071
3874.507870	261.083588	-132.371124	430.643463
3874.511200	262.836945	-129.098175	434.793091
3874.514536	263.421387	-126.059044	437.773804
3874.517865	264.707184	-124.013451	442.157196
3874.521206	266.285217	-121.032738	445.605469
3874.524529	267.278778	-118.344246	449.053741
3874.527863	268.915253	-115.831093	453.086487
3874.531218	270.201050	-112.908821	455.716522
3874.534531	271.253052	-110.687904	459.047913
3874.537862	272.597321	-107.590309	461.970154
3874.541202	273.824646	-105.194038	465.710693
3874.544538	274.409119	-101.979546	468.048492
3874.547867	275.461121	-100.109306	471.730530
3874.551228	276.630066	-97.420815	474.886597
3874.554530	277.915833	-94.323204	476.523071
3874.557857	278.734070	-92.277626	478.802429
3874.561200	279.786102	-89.472252	482.016937
3874.564537	280.838104	-87.601997	484.296295
3874.567863	281.714783	-85.322624	486.283447
3874.572538	282.883698	-80.646996	490.491516
3874.575453	283.877258	-79.185860	492.420197
3874.578786	284.812378	-76.906487	493.939789
3874.582106	285.513733	-75.386909	495.517822
3874.585384	286.448853	-73.165993	497.154266
3874.588715	287.383972	-71.704857	499.375214
3874.592044	287.793121	-69.659264	500.777893
3874.595406	287.910004	-68.315025	501.771454
3874.598305	288.728241	-66.327873	502.998810
3874.601637	289.254242	-64.632957	504.635284
3874.604962	290.423157	-63.347176	505.570404
3874.608338	290.949158	-62.528938	507.148437
3874.611611	291.358276	-60.483345	506.680878
3874.614952	291.767395	-58.846870	508.434235
3874.617856	292.176514	-57.444191	509.836914
3874.621192	292.760956	-56.450615	511.356506
3874.624526	293.403870	-55.164818	511.707184
3874.627860	294.222107	-53.703682	512.642273
3874.631186	294.455872	-53.060799	512.116272
3874.634524	295.449463	-51.599655	514.103455
3874.637870	296.326111	-50.722969	514.980103
3874.641183	296.735260	-49.554062	515.681458
3874.644518	296.793701	-48.385155	515.915222
3874.647855	297.261261	-47.391594	516.850342
3874.651187	297.962585	-46.339569	517.493286
3874.654520	298.488617	-45.229111	518.720642
3874.657853	298.956177	-44.527771	518.428406
3874.661181	299.306854	-42.949745	519.012817
3874.664529	299.306854	-41.722389	520.298645
3874.667855	300.183533	-40.728821	520.824646
3874.671187	300.125061	-39.559914	521.526001
3874.674554	300.125061	-39.033897	523.104004
3874.677852	301.293976	-37.864990	523.513123
3874.681204	301.177094	-37.338982	523.863831
3874.684514	301.878448	-35.994743	524.857361
3874.687849	301.995331	-35.410294	526.026306
3874.691186	302.462891	-34.475166	527.078308
3874.694519	302.755127	-33.247818	525.792480
3874.697844	303.339569	-32.663353	526.902954
3874.701184	303.398010	-31.962013	527.545837
3874.704513	303.690247	-31.494446	529.240784
3874.707845	303.748688	-30.208656	529.240784
3874.711178	304.216248	-29.565750	529.065430
3874.714511	304.040924	-29.215080	529.942139
3874.717849	304.099365	-28.396843	529.766785
3874.721178	304.508484	-27.578613	530.409668
3874.724532	304.566925	-27.578613	531.987732
3874.727843	304.391602	-26.877274	531.637024
3874.732529	304.859161	-26.468155	531.695496
3874.735401	304.800720	-26.059029	531.987732
3874.738705	304.508484	-26.292809	531.929260
3874.742062	304.333130	-25.065468	532.572144
3874.745375	304.859161	-25.416138	532.104614
3874.748769	304.800720	-24.597900	533.215088
3874.752100	305.385162	-25.474586	532.455261
3874.755444	305.034485	-25.123901	532.747498
3874.758271	305.034485	-24.773239	532.279907
3874.761603	304.859161	-24.539452	531.929260
3874.764930	304.976044	-24.422562	532.338379
3874.768285	305.502045	-24.656342	532.104614
3874.771602	304.625366	-24.481010	532.396851
3874.774932	304.976044	-24.071892	532.805969
3874.778260	304.508484	-24.539452	532.221497
3874.781172	304.917603	-25.065468	531.870789
3874.784502	305.326721	-24.597900	532.338379
3874.787839	305.502045	-25.123901	532.104614
3874.791171	304.859161	-24.539452	533.156616
3874.794504	304.450043	-24.597900	532.981262
3874.797848	304.566925	-24.714790	532.163025
3874.801174	304.566925	-24.773239	532.104614
3874.804536	304.274689	-24.597900	533.039734
3874.807834	304.391602	-24.948570	532.396851
3874.811195	304.566925	-24.656342	532.396851
3874.814502	304.099365	-25.123901	531.929260
3874.817835	304.216248	-24.831688	532.513733
3874.821172	304.216248	-25.240799	531.286377
3874.824502	304.099365	-25.474586	532.572144
3874.827837	303.631805	-25.357689	532.104614
3874.831166	303.807129	-25.474586	532.455261
3874.834506	303.514893	-26.351257	531.929260
3874.837836	303.514893	-25.766815	532.981262
3874.841164	303.514893	-26.760376	532.046143
3874.844503	302.755127	-26.935722	531.753906
3874.847831	302.462891	-26.760376	531.987732
3874.851169	302.170654	-26.760376	531.111023
3874.854503	301.644653	-27.403282	530.994141
3874.857835	301.644653	-27.695503	531.520142
3874.861181	301.001770	-28.922852	530.292786
3874.864498	301.586212	-29.215080	530.292786
3874.867832	300.534180	-29.039749	530.059021
3874.871165	300.300415	-30.091759	530.292786
3874.874499	299.365295	-30.734657	530.117432
3874.877835	299.248383	-31.435997	529.825256
3874.881163	298.722382	-31.845131	528.480957
3874.884493	298.371704	-33.072472	528.480957
3874.887837	297.553467	-33.364700	527.078308
3874.891201	297.085907	-34.066048	526.610718
3874.895863	296.559906	-36.111641	525.266479
3874.898716	295.449463	-37.046768	524.740479
3874.902084	295.098785	-38.215675	524.097595
3874.905404	294.572754	-39.326134	524.097595
3874.908703	293.988312	-39.852142	523.746887
3874.912024	293.520752	-40.670372	521.993530
3874.915339	292.527161	-41.897728	521.526001
3874.918686	292.176514	-42.949745	520.590881
3874.921593	291.884277	-44.235535	520.181763
3874.924920	290.423157	-45.462891	519.188171
3874.928272	289.955566	-46.748688	519.246643
3874.931601	289.195801	-47.274696	518.077698
3874.935033	289.254242	-48.852715	517.084167
3874.938246	288.085327	-49.670959	516.324341
3874.941181	287.267090	-50.664528	515.739929
3874.944489	286.331970	-52.067223	514.863220
3874.947826	285.513733	-53.060799	514.512573
3874.951157	285.046173	-53.820580	512.876099
3874.954489	284.227936	-55.924599	512.408508
3874.957827	283.351257	-56.450615	511.882507
3874.961157	282.299255	-57.794853	510.888947
3874.964490	281.364105	-59.197548	509.895355
3874.967827	280.955017	-60.834007	508.784912
3874.971150	280.195190	-62.353600	508.025116
3874.974490	278.734070	-63.288719	506.797760
3874.977820	277.623596	-64.808311	505.336639
3874.981149	276.396271	-66.386330	503.817047
3874.984497	275.928711	-67.847466	503.466370
3874.987819	274.584473	-69.308586	501.537689
3874.991151	273.064880	-71.354179	500.777893
3874.994486	271.662201	-72.815315	498.615417
3874.997820	270.727051	-74.568672	498.381622
3875.001148	269.675049	-76.555824	495.985382
3875.004482	267.746338	-78.250725	493.238434
3875.007816	266.402100	-80.588554	491.718872
3875.011149	264.531860	-82.049675	489.030365
3875.014485	263.129150	-84.212166	487.861450
3875.017818	262.135590	-86.316185	485.172974
3875.021184	260.148437	-88.770897	483.361176
3875.024486	258.745758	-90.991814	480.263580
3875.027824	257.401520	-92.920509	477.808868
3875.031148	254.479248	-94.907661	476.055511
3875.034478	253.310349	-97.187035	472.431885
3875.037809	251.381653	-99.466393	469.977173
3875.041151	249.745178	-101.745766	467.405579
3875.044480	247.991821	-103.966682	463.080627
3875.047810	245.712448	-107.181190	459.866150
3875.051150	244.309753	-109.519005	457.060760
3875.054472	242.790192	-111.564583	452.852692
3875.058723	238.699005	-116.415550	445.371704
3875.062003	236.361206	-119.162483	441.923431
3875.065365	234.549393	-121.792519	438.475159
3875.068653	231.977798	-124.481010	433.916412
3875.072020	230.107544	-126.468147	429.825226
3875.075377	227.594391	-129.039764	425.383392
3875.078732	225.548798	-131.319092	420.824646
3875.081582	223.678558	-134.007599	416.733459
3875.084942	220.931610	-136.111633	412.934509
3875.088261	218.652252	-138.507904	407.499115
3875.091570	216.139099	-140.904144	402.998810
3875.094900	213.509064	-143.358856	397.855621
3875.098229	211.171249	-145.638245	393.179993
3875.101569	208.541199	-148.385162	387.803009
3875.104476	205.735825	-150.372314	382.601379
3875.107817	203.690247	-153.177673	376.289276
3875.111140	200.651093	-154.989502	370.444763
3875.114472	197.962601	-157.035065	364.717102
3875.117803	194.923447	-159.372894	358.580353
3875.121138	191.825836	-161.243134	351.742249
3875.124471	188.845123	-163.171814	345.137909
3875.127808	185.572189	-165.217407	337.364685
3875.131147	182.357681	-166.678558	330.935669
3875.134473	179.669205	-168.198151	322.870239
3875.137805	176.162491	-170.185272	316.032135
3875.141138	173.123322	-172.113983	307.791321
3875.144469	169.558151	-173.399780	298.849182
3875.147806	165.934540	-174.393341	290.783722
3875.151171	162.603149	-175.503815	282.659821
3875.154472	159.973129	-177.081848	273.133240
3875.157804	155.881943	-177.958496	264.132660
3875.161140	152.492111	-178.718292	254.839844
3875.164470	149.978958	-179.244324	244.319702
3875.167802	145.712448	-179.361176	233.799530
3875.171140	142.731735	-179.361176	223.630035
3875.174470	139.049683	-179.653412	212.876068
3875.177799	135.718307	-178.250732	202.881927
3875.181133	132.796021	-178.250732	191.894196
3875.184464	129.406189	-177.257172	181.374023
3875.187805	126.483917	-175.386902	169.860291
3875.191136	124.379898	-173.691986	158.054352
3875.194520	121.516068	-172.172424	146.599030
3875.197796	118.827591	-169.776154	135.494446
3875.201137	116.255997	-167.730591	124.331360
3875.204466	113.976624	-165.100525	112.992981
3875.207796	111.171249	-161.769135	101.187012
3875.211131	109.417892	-158.087097	90.082397
3875.214465	107.664520	-154.580353	79.562225
3875.219095	104.099365	-145.813568	58.580322
3875.221998	101.936890	-141.254822	46.774384
3875.225372	100.241974	-135.702515	36.312653
3875.228766	98.254822	-129.565735	26.260071
3875.232068	97.085907	-124.013451	16.675049
3875.235316	96.559906	-116.941551	6.680847
3875.238663	95.449448	-110.395683	-1.559937
3875.241968	95.098785	-103.499123	-11.261841
3875.244894	93.929871	-95.024544	-20.554626
3875.248217	93.403870	-86.959084	-28.970764
3875.251544	93.286972	-79.127419	-36.568726
3875.254921	93.286972	-69.542366	-44.049683
3875.258231	92.644073	-60.308022	-51.472229
3875.261181	92.819397	-50.898315	-58.719482
3875.264458	93.754532	-40.144356	-64.973145
3875.267818	95.040329	-29.682648	-71.928162
3875.271124	95.917007	-18.811806	-76.428406
3875.274455	96.852142	-7.590302	-80.811829
3875.277791	98.722382	4.274109	-86.071899
3875.281137	99.891281	16.138512	-89.520203
3875.284459	101.878433	28.119808	-92.793152
3875.287787	104.099365	40.451778	-95.773865
3875.291126	106.904755	53.251312	-97.936340
3875.294453	109.417892	65.641724	-99.046753
3875.297783	112.340149	79.960838	-100.975464
3875.301121	115.963776	92.468140	-101.326172
3875.304456	119.412048	106.611916	-102.202820
3875.307789	123.035645	119.353012	-101.501465
3875.311137	127.068375	132.035645	-99.455872
3875.314454	131.276443	144.893616	-98.579224
3875.317789	136.419632	157.868500	-96.066040
3875.321122	140.803055	170.784912	-92.968506
3875.324455	145.478683	182.941544	-89.870850
3875.327836	150.329636	195.624207	-85.779663
3875.331120	155.765045	207.313263	-80.578064
3875.334448	160.557571	219.469910	-75.259521
3875.337789	166.168320	230.925201	-69.940979
3875.341158	171.779068	241.153137	-64.154846
3875.344453	176.922272	252.316193	-57.024597
3875.347785	182.065460	262.777893	-50.712463
3875.351112	187.617767	272.362946	-44.984802
3875.354473	193.345413	281.655762	-37.153137
3875.357786	198.605499	290.831665	-29.964355
3875.361117	203.982483	299.189362	-22.834045
3875.364450	208.833435	307.021027	-13.891907
3875.367778	213.742844	315.203400	-5.709595
3875.371116	219.587372	321.807709	3.115662
3875.374451	224.555237	328.704254	11.181152
3875.378721	234.198715	341.562256	28.539459
3875.382029	239.108124	347.815887	37.890717
3875.385351	243.783752	353.134430	47.358826
3875.388632	248.225586	358.511383	57.469879
3875.391958	252.433670	363.011688	65.944458
3875.395312	256.057281	367.044434	75.763245
3875.398666	260.732910	370.843353	85.640564
3875.401551	265.116302	374.466980	95.634674
3875.404885	269.090607	377.447693	104.635284
3875.408220	272.889526	380.369965	115.739899
3875.411583	276.162476	383.000000	124.740479
3875.414876	280.838104	385.104034	134.383972
3875.418200	284.286377	387.324951	144.144318
3875.421539	288.085327	389.312103	153.144928
3875.424442	291.650513	389.779663	162.729980
3875.427793	294.981873	390.656342	172.782562
3875.431108	299.073059	391.766815	182.542938
3875.434440	301.995331	391.825256	191.134430
3875.437779	305.209808	392.117462	200.719452
3875.441109	308.658112	392.409698	209.836914
3875.444443	311.755707	392.292816	218.837524
3875.447772	314.619507	391.649902	227.487396
3875.451108	317.950897	390.714783	236.780212
3875.454438	320.756287	389.604340	244.495026
3875.457776	323.386322	388.727631	252.735809
3875.461143	326.191711	386.682068	260.041473
3875.464476	328.587952	385.571594	268.340729
3875.467766	331.159546	383.584442	275.938599
3875.471120	333.789612	382.006439	283.945618
3875.474437	335.893646	379.843933	290.491516
3875.477770	337.997681	378.090607	296.803589
3875.481110	340.101685	376.220337	303.349487
3875.484438	342.147278	373.531860	310.187592
3875.487768	343.725311	370.726501	317.142578
3875.491098	345.887787	368.797791	323.162476
3875.494436	347.582703	366.226196	328.890076
3875.497769	350.095856	363.888367	334.383972
3875.501103	352.258331	361.492096	340.812958
3875.504433	353.602570	359.037415	346.189941
3875.507790	354.420807	356.290466	351.391571
3875.511100	355.765045	353.718872	356.125641
3875.514437	357.050842	351.556396	361.210388
3875.517767	357.985962	348.751007	366.470459
3875.521101	359.388672	345.828766	370.152527
