time (s)	magX	magY	magZ
6018.833412	374.993561	443.023407	196.102264
6018.836745	372.129761	445.185852	188.270569
6018.840081	370.142609	446.296326	179.796021
6018.843410	367.220337	447.173004	171.613647
6018.846748	364.239624	448.575684	163.080627
6018.850080	361.317352	449.978363	154.313843
6018.853412	357.869080	450.796631	145.371674
6018.856774	353.427246	451.205719	136.078888
6018.860079	348.868500	452.140839	125.792480
6018.863415	343.959106	451.907074	117.084167
6018.866741	339.575684	452.023956	106.856201
6018.870076	334.432495	451.556396	97.680267
6018.873405	329.289307	451.030396	88.329010
6018.876741	323.561676	449.919922	78.159546
6018.881425	311.814148	446.763885	58.755676
6018.884282	305.151367	444.835175	48.410828
6018.887594	298.371704	442.438934	37.832245
6018.890913	291.825836	439.575104	28.071869
6018.894270	284.637054	436.477478	18.369934
6018.897608	277.389832	431.509644	8.843384
6018.901013	270.317932	428.002930	-0.157227
6018.904324	263.129150	423.444183	-10.502075
6018.907167	255.998840	419.060791	-19.794861
6018.910504	248.868500	413.625366	-28.210999
6018.913829	241.329056	407.897736	-37.445374
6018.917161	234.198715	402.111633	-46.329102
6018.920501	226.250153	396.500885	-55.621887
6018.923844	219.645828	390.305695	-64.154846
6018.926735	212.340149	383.116882	-73.330811
6018.930073	205.443604	375.811218	-80.870239
6018.933403	198.722382	368.037994	-89.169495
6018.936733	191.475174	360.732300	-97.001160
6018.940069	185.046173	352.666870	-104.599060
6018.943397	178.324966	343.724731	-111.670959
6018.946733	171.486862	334.373474	-119.619507
6018.950068	164.356522	325.489777	-125.990051
6018.953404	157.752197	316.372284	-132.886597
6018.956732	151.440094	307.488586	-139.432495
6018.960066	144.718887	297.026886	-145.218628
6018.963400	137.530090	286.915833	-150.770935
6018.966733	131.744003	276.220337	-155.154358
6018.970067	124.321457	265.232605	-160.180603
6018.973403	118.184692	253.426636	-163.628906
6018.976732	111.229691	241.503815	-167.310974
6018.980060	105.268265	229.873169	-170.291687
6018.983399	97.845703	218.359436	-172.629456
6018.986732	91.358276	205.443024	-174.265930
6018.990059	84.578613	192.643478	-174.558167
6018.993396	77.389832	180.311523	-175.317993
6018.996728	70.727051	167.219757	-175.376404
6019.000059	64.005859	154.478668	-172.454163
6019.003454	57.518402	141.328461	-171.635925
6019.006729	50.037415	128.295135	-170.057861
6019.010062	43.316193	115.086494	-166.492737
6019.013397	37.530090	102.111626	-162.460022
6019.016726	31.919342	89.253647	-158.310364
6019.020063	26.483917	75.986557	-152.699646
6019.023393	20.931641	62.719460	-146.562805
6019.026733	16.139099	50.095261	-139.081848
6019.030084	11.521912	37.529510	-132.302185
6019.033391	7.956757	25.840443	-124.178284
6019.036721	4.391571	13.800701	-116.521973
6019.040937	-2.212738	-8.057869	-100.040344
6019.044307	-4.258331	-18.578026	-90.981323
6019.047677	-5.953247	-28.630623	-81.454712
6019.050920	-7.823486	-39.092346	-73.097046
6019.054254	-8.758606	-49.028061	-62.752197
6019.057148	-10.278198	-57.794853	-53.400940
6019.060484	-10.687317	-66.269432	-43.582092
6019.063809	-10.745758	-74.451790	-33.821716
6019.067144	-10.336639	-82.517235	-24.528931
6019.070503	-9.985962	-90.582710	-14.710083
6019.073857	-9.050842	-97.187035	-5.300415
6019.077164	-7.414398	-104.492699	3.875488
6019.080079	-5.953247	-111.330803	14.570984
6019.083386	-4.199890	-117.409126	24.214478
6019.086723	-2.797211	-123.370552	33.857941
6019.090051	-0.167145	-128.747528	43.618347
6019.093391	1.703094	-133.189362	54.781372
6019.096722	4.040924	-138.683228	64.658691
6019.100051	7.196960	-143.183533	75.237274
6019.103391	9.359436	-146.807129	85.056091
6019.106722	12.047943	-150.898285	94.991821
6019.110049	14.970184	-153.586792	105.453522
6019.113387	18.360016	-156.742859	117.084167
6019.116741	21.866760	-159.431335	128.364075
6019.120050	24.613678	-161.827606	138.299805
6019.123385	28.237305	-163.873169	150.105774
6019.126713	31.101105	-165.918762	161.151947
6019.130048	34.315613	-167.146118	172.022797
6019.133386	38.231445	-168.081238	183.419617
6019.136718	41.212158	-169.834595	193.121552
6019.140099	45.186462	-170.769714	204.693726
6019.143385	48.985382	-170.828186	215.389252
6019.146722	53.251923	-170.769714	226.084717
6019.150051	56.758636	-170.419067	236.663330
6019.153374	61.258911	-170.419067	247.475739
6019.156715	64.531860	-170.185272	257.995911
6019.160065	68.798370	-169.016357	268.165375
6019.163376	72.597321	-167.730591	277.458191
6019.166712	76.162476	-166.795441	287.627686
6019.170041	81.071869	-165.334320	296.336060
6019.173375	84.987732	-164.106964	305.161316
6019.176714	89.078918	-162.704254	313.986572
6019.180046	93.462311	-161.535370	321.701324
6019.183376	97.319702	-159.548218	330.351257
6019.186710	101.586197	-158.846863	337.540039
6019.190980	109.008774	-155.457062	351.859131
6019.194323	113.275299	-153.294586	358.697235
6019.197568	117.249557	-152.067230	364.249542
6019.200897	120.814728	-150.255402	370.386292
6019.204248	124.730560	-149.028046	376.172394
6019.207578	128.587967	-146.514893	381.900024
6019.210908	132.796021	-144.761536	386.634094
6019.213818	136.010529	-143.008209	392.303314
6019.217152	140.277039	-141.780853	397.621826
6019.220535	143.374634	-139.910583	401.713013
6019.223805	146.472244	-137.923431	406.096436
6019.227141	150.329636	-136.170074	410.772034
6019.230462	153.135010	-135.293396	415.272339
6019.233373	156.933960	-133.014008	419.480408
6019.236702	159.563995	-131.845123	422.753357
6019.240039	162.486267	-129.565735	427.078308
6019.243370	165.408524	-127.403267	430.935699
6019.246712	168.389252	-125.357689	434.267090
6019.250035	171.311508	-123.428993	438.650482
6019.253368	174.409119	-121.558739	441.689636
6019.256699	177.389832	-119.104042	446.365265
6019.260040	180.195221	-117.058449	448.878418
6019.263370	182.649918	-115.129753	452.326691
6019.266701	185.630615	-112.791939	456.593201
6019.270038	188.260666	-110.512566	459.164795
6019.273369	190.773819	-108.408531	461.444153
6019.276725	192.819412	-106.538277	464.892456
6019.280036	195.624786	-104.142021	468.399170
6019.283363	197.728821	-101.570427	472.081207
6019.286703	200.066635	-99.291054	474.535919
6019.290035	201.936874	-97.303917	478.276428
6019.293364	204.800705	-94.615440	480.614258
6019.296702	207.430740	-91.985390	483.478058
6019.300030	209.359451	-90.582710	486.049652
6019.303366	211.638809	-88.420219	488.095245
6019.306724	213.918182	-86.959084	490.257721
6019.310028	215.262421	-84.153709	492.537109
6019.313363	217.658676	-82.458809	494.758026
6019.316698	219.762711	-80.822334	496.803589
6019.320040	221.632965	-78.952080	499.433655
6019.323358	223.094086	-77.140266	501.245453
6019.326694	225.198120	-75.328468	502.940369
6019.330045	226.483932	-74.101112	504.401489
6019.333372	228.529510	-72.406197	506.037964
6019.336693	230.808884	-71.412636	506.505524
6019.340027	233.088257	-69.717720	508.901794
6019.343362	233.789612	-67.964348	509.661591
6019.347988	236.594971	-66.620110	512.057861
6019.350934	238.582123	-65.100533	512.642273
6019.354239	239.809479	-64.399178	513.051392
6019.357624	240.510803	-63.347176	514.103455
6019.360943	242.439514	-62.178261	514.863220
6019.364260	243.140854	-61.301582	515.622986
6019.367535	244.835770	-59.898888	516.324341
6019.370451	245.829346	-59.197548	517.084167
6019.373789	247.056686	-58.320869	517.785461
6019.377125	248.517822	-57.794853	518.194580
6019.380454	249.160721	-56.684395	518.194580
6019.383785	250.329636	-56.158394	519.012817
6019.387137	251.264771	-54.755699	519.714172
6019.390019	252.375214	-54.112801	520.064880
6019.393353	253.135010	-53.469902	521.467529
6019.396734	253.894806	-52.476334	522.461121
6019.400028	254.654587	-51.658089	523.104004
6019.403356	256.115723	-50.489189	524.097595
6019.406709	256.232605	-49.787842	525.324951
6019.410016	257.343079	-49.144943	526.201599
6019.413357	258.044434	-47.683807	526.260071
6019.416689	259.037994	-46.982468	526.727600
6019.420023	259.856232	-45.988907	528.305664
6019.423351	260.440674	-45.579781	530.000549
6019.426685	261.317352	-44.118652	530.585022
6019.430019	262.135590	-43.475746	530.701904
6019.433352	263.187622	-41.722389	531.461670
6019.436685	263.070740	-40.670372	532.046143
6019.440016	263.830505	-39.969025	532.630615
6019.443351	264.298065	-39.618362	533.857971
6019.446685	265.408539	-38.800117	534.325500
6019.450032	266.051422	-38.215675	533.916382
6019.453346	266.694336	-37.748108	534.208618
6019.456686	267.395691	-36.988319	535.085327
6019.460039	267.395691	-35.468735	535.552856
6019.463353	268.330811	-35.936295	535.903564
6019.466680	268.330811	-35.351845	535.786682
6019.470021	268.973694	-35.468735	536.838684
6019.473351	269.265930	-35.118065	536.897095
6019.476678	269.850372	-34.825836	537.247803
6019.480040	270.493286	-34.358276	537.306213
6019.483351	271.194641	-34.241386	537.130920
6019.486682	270.902405	-34.475166	536.663330
6019.490010	271.253052	-34.592056	536.487976
6019.493347	271.428406	-34.592056	536.195801
6019.496682	271.545288	-34.942734	536.897095
6019.501365	271.954407	-35.585625	535.903564
6019.504268	272.363525	-35.760963	535.494446
6019.507606	272.714203	-35.585625	535.552856
6019.510869	272.714203	-35.176514	535.961975
6019.514196	273.123322	-35.527184	535.319092
6019.517530	272.714203	-35.644073	535.494446
6019.520873	273.006439	-35.877861	535.435974
6019.523822	273.181763	-35.760963	535.202209
6019.527121	273.006439	-36.520752	534.968445
6019.530448	273.240204	-36.170074	535.669739
6019.533780	273.473999	-36.170074	535.552856
6019.537118	272.947998	-36.579201	535.611328
6019.540430	273.181763	-37.222099	535.143738
6019.543762	272.655762	-36.111641	535.669739
6019.546673	272.714203	-36.812981	536.195801
6019.550007	272.363525	-36.988319	535.377563
6019.553344	273.181763	-37.046768	534.617737
6019.556674	272.129761	-36.812981	534.793091
6019.560007	272.655762	-37.280548	535.669739
6019.563340	272.831116	-37.455879	535.260620
6019.566692	272.947998	-37.397430	535.552856
6019.570011	272.363525	-37.163651	535.611328
6019.573343	271.837524	-37.514328	535.026855
6019.576669	272.012878	-37.806541	535.494446
6019.580001	272.363525	-38.157227	535.611328
6019.583345	272.246643	-38.507889	535.903564
6019.586667	271.486847	-39.033897	534.851501
6019.590004	271.136169	-39.209236	535.435974
6019.593335	271.077728	-40.085922	535.435974
6019.596671	270.902405	-40.261253	535.845093
6019.600004	270.551727	-40.787270	534.676208
6019.603334	270.259521	-40.845703	534.442383
6019.606664	270.201050	-42.365288	533.507263
6019.610016	269.908813	-42.715950	533.624207
6019.613333	269.499695	-44.527771	532.689026
6019.616670	269.382812	-45.462891	532.396851
6019.619994	269.265930	-46.456467	532.221497
6019.623330	268.447693	-47.333145	531.987732
6019.626666	268.564575	-48.677383	531.052612
6019.629996	267.804810	-49.437172	529.708313
6019.633330	267.395691	-50.839867	528.948547
6019.636666	267.045013	-52.067223	527.838074
6019.640002	266.226776	-53.703682	527.370544
6019.643356	265.642334	-53.937477	525.617187
6019.646699	264.356506	-55.749275	525.032715
6019.649998	264.707184	-56.859734	524.331360
6019.653337	263.888977	-58.379311	523.396240
6019.656664	263.070740	-59.898888	522.168884
6019.661278	261.960266	-62.762718	520.415527
6019.664200	261.492706	-64.223854	518.779053
6019.667527	260.732910	-64.516075	518.779053
6019.670911	259.271790	-66.736992	517.843933
6019.674261	258.804199	-67.964348	517.025696
6019.677512	257.752197	-69.425484	515.739929
6019.680839	256.992401	-70.535942	514.746338
6019.684176	256.115723	-72.230858	513.928101
6019.687092	255.414383	-72.639977	512.992981
6019.690457	254.713043	-74.276451	512.057861
6019.693768	253.018127	-76.088264	511.122711
6019.697103	252.784332	-77.023384	510.655151
6019.700437	251.323212	-79.127419	509.018677
6019.703790	250.388092	-79.887215	508.317352
6019.706654	249.686737	-81.582115	506.973083
6019.709994	248.517822	-83.218590	505.979523
6019.713323	247.407364	-84.562843	504.810608
6019.716657	246.413788	-86.199303	503.875488
6019.719988	245.653992	-87.660423	502.297455
6019.723320	243.900650	-90.056694	501.303894
6019.726659	243.491531	-91.693169	499.375214
6019.729988	241.679718	-93.271187	497.504944
6019.733355	240.277039	-95.842796	494.991791
6019.736653	239.575684	-97.888374	493.881348
6019.739993	237.939209	-99.583290	492.069519
6019.743324	237.179428	-102.271767	489.907043
6019.746653	236.068970	-105.369377	488.153687
6019.749983	234.432495	-107.940971	485.465210
6019.753320	232.679138	-110.395683	483.828735
6019.756649	231.568665	-113.259499	479.854462
6019.759990	230.341309	-115.246635	477.049072
6019.763320	229.464630	-118.519585	474.535919
6019.766653	227.360611	-121.967857	470.970764
6019.769982	225.782593	-125.007027	467.054932
6019.773315	223.620117	-127.520164	464.191101
6019.776689	222.334320	-130.968445	460.099915
6019.779983	220.814728	-133.598480	455.891846
6019.783319	219.061371	-137.514313	452.677368
6019.786650	216.840454	-139.969025	448.527740
6019.789987	215.905319	-143.417297	444.787231
6019.793316	213.918182	-145.988892	440.871399
6019.796645	212.398605	-149.729401	435.961975
6019.799979	210.469910	-152.710114	431.637024
6019.803316	209.125671	-155.573914	427.253632
6019.806654	206.963181	-159.255981	422.870239
6019.809977	204.625366	-162.119843	417.610168
6019.813315	202.755127	-164.632965	413.986542
6019.816644	200.651093	-167.905914	407.732880
6019.820023	197.845718	-171.354187	402.706604
6019.824611	193.988312	-177.257172	392.595520
6019.827497	191.475174	-180.179443	387.218567
6019.830827	189.078903	-183.043243	381.958496
6019.834177	186.507309	-185.848633	376.581512
6019.837608	184.403275	-189.296906	370.503204
6019.840905	182.357681	-191.985382	364.366455
6019.844254	180.195221	-194.849213	359.106354
6019.847068	178.032730	-197.946808	352.735809
6019.850406	175.987137	-201.570404	346.073059
6019.853734	173.649323	-203.791321	338.533569
6019.857074	171.545288	-207.999420	331.870819
6019.860404	169.265930	-210.512573	323.805359
6019.863770	166.694336	-214.136169	315.973694
6019.866645	165.174744	-217.175354	307.674438
6019.869976	163.596725	-220.331390	299.492065
6019.873310	161.142029	-224.247223	290.725281
6019.876634	159.330215	-228.046143	281.490936
6019.879969	157.343079	-231.319092	271.847443
6019.883342	155.414383	-234.124512	261.794830
6019.886644	153.661011	-237.338989	250.164215
6019.889975	151.907654	-240.845703	239.994720
6019.893304	150.388077	-243.943298	228.247192
6019.896641	149.277618	-246.573364	216.499695
6019.899973	146.939804	-249.437164	204.635284
6019.903303	146.472244	-252.067200	191.485077
6019.906659	144.777328	-254.405029	178.685547
6019.909975	143.783768	-256.625946	164.950867
6019.913313	143.023972	-258.963745	151.274658
6019.916640	141.153717	-261.184692	136.955566
6019.919969	140.861496	-262.295166	123.279358
6019.923298	139.984802	-263.814728	108.960236
6019.926636	139.283463	-264.516083	94.173553
6019.929966	138.465210	-265.392761	80.205139
6019.933300	138.114548	-265.217407	65.067749
6019.936655	137.471649	-265.451202	51.040863
6019.939975	137.997650	-264.574493	35.260651
6019.943303	136.536530	-263.697845	19.889526
6019.946646	136.828766	-262.645813	5.336609
6019.949971	136.302765	-261.301575	-9.216248
6019.953305	136.244293	-259.489777	-24.178284
6019.956632	137.120987	-256.976593	-39.374084
6019.959971	137.179428	-255.106354	-53.167175
6019.963298	136.945648	-251.833405	-67.603149
6019.966633	138.231445	-248.852722	-82.740540
6019.969963	139.225006	-245.053772	-96.592041
6019.973303	140.218597	-240.670380	-110.092957
6019.976633	141.212158	-236.170074	-124.178284
6019.981304	144.368195	-226.526611	-151.764526
6019.984236	146.764465	-220.214478	-165.908264
6019.987571	148.459396	-214.311493	-179.058472
6019.990849	151.498550	-207.999420	-191.215088
6019.994164	154.070145	-200.635284	-204.423706
6019.997478	157.927521	-193.212738	-216.288147
6020.000828	161.726471	-185.147278	-229.204590
6020.004160	165.525421	-176.848053	-241.127380
6020.007076	170.493286	-167.964355	-253.400940
6020.010423	175.519577	-159.372894	-264.096436
6020.013748	181.364120	-149.612518	-276.136169
6020.017059	186.916428	-138.800140	-286.130371
6020.020383	192.527176	-127.987724	-296.124512
6020.023748	198.897720	-116.357109	-305.943359
6020.026628	205.911163	-105.310921	-315.586792
6020.029959	213.275284	-92.043846	-323.535400
6020.033290	220.580948	-79.594978	-331.308594
6020.036628	228.704849	-66.620110	-338.614258
6020.039958	236.711853	-52.827003	-343.406860
6020.043295	245.069550	-38.274109	-348.666931
6020.046627	253.193451	-23.838104	-353.050293
6020.049955	261.551147	-9.811226	-357.083008
6020.053316	269.324371	5.150787	-359.479309
6020.056620	278.032745	20.580360	-359.596130
6020.059956	286.624207	35.425480	-360.239075
6020.063289	294.864990	50.329044	-360.239075
6020.066642	302.462891	65.758621	-358.544128
6020.069952	310.119232	81.538864	-356.206299
6020.073289	318.360016	96.267090	-354.043823
6020.076621	325.490356	111.988892	-350.244873
6020.079948	332.737579	125.781998	-346.329102
6020.083290	339.867920	141.036224	-340.776794
6020.086622	345.946228	154.420227	-334.932190
6020.089957	353.836365	168.973114	-328.737061
6020.093286	360.031555	182.473984	-321.723633
6020.096645	366.226776	196.442429	-315.177673
6020.099955	371.603760	209.241974	-306.586243
6020.103287	377.214508	221.457031	-299.163696
6020.106620	383.175934	233.789001	-290.104614
6020.109957	388.552887	245.653412	-281.630127
6020.113287	393.988312	257.693176	-272.161926
6020.116620	398.839264	268.680878	-262.635315
6020.119955	403.631805	278.791931	-252.348938
6020.123325	409.534790	288.844513	-241.828796
6020.126614	413.801300	298.429565	-231.191711
6020.129951	418.418457	307.488586	-220.203979
6020.133280	423.678558	316.430756	-209.625427
6020.136612	428.295715	325.548218	-199.046753
6020.141276	437.296326	341.912903	-175.317993
6020.144150	441.913513	348.984802	-163.219727
6020.147474	446.881348	356.582703	-150.420227
6020.150863	451.440094	362.836365	-139.198730
6020.154210	455.063721	369.265350	-125.814758
6020.157522	458.979553	376.161896	-112.956787
6020.160795	463.772064	381.655762	-99.631226
6020.164152	467.863251	387.208069	-87.007019
6020.167037	471.779083	392.409698	-73.681519
6020.170372	474.935120	396.325531	-60.472839
6020.173704	477.974304	400.884277	-47.381104
6020.177057	481.071899	404.741669	-33.997131
6020.180391	483.818817	407.663940	-20.554626
6020.183745	486.916443	411.287537	-7.872009
6020.186608	488.669800	413.800720	5.044373
6020.189944	490.481598	415.554077	18.369934
6020.193272	492.176514	418.125641	31.169495
6020.196619	493.170074	420.054352	43.442993
6020.199944	494.280548	420.989502	56.417877
6020.203275	495.800110	421.866180	68.048523
6020.206611	495.741699	422.567505	78.860901
6020.209943	496.092346	423.093506	90.783722
6020.213271	496.793701	423.619537	102.940369
6020.216613	496.150787	423.794861	113.460541
6020.219938	496.092346	423.210388	123.805359
6020.223276	495.741699	423.327301	133.390381
6020.226631	495.390991	422.567505	143.442993
6020.229937	495.098755	422.684418	152.677368
6020.233272	494.981873	421.398621	162.437744
6020.236603	493.637634	420.580353	171.672089
6020.239941	492.819397	419.119232	180.497345
6020.243274	491.825836	418.651672	188.562805
6020.246609	491.416718	416.839844	196.569824
6020.249945	490.364685	414.969604	204.167725
6020.253269	489.254242	414.034485	212.642303
6020.256602	488.786682	412.514893	220.590851
6020.259946	487.734680	410.527771	227.019836
6020.263271	486.974854	408.599060	234.676208
6020.266606	486.098206	406.787262	241.864990
